"Plane Section: Position[X] (m)","Plane Section: Position[Y] (m)"
3.5,0.0010286997086366195
3.2699999999999996,0.0010355501479227145
3.0399999999999996,0.0010756894780733323
2.8099999999999996,0.0011384350505587288
2.58,0.0012313236482043026
2.3499999999999996,0.0013734975904601528
2.1200000000000006,0.001575207592716567
1.8900000000000001,0.0018657183355185452
1.6600000000000006,0.0022440943586240917
1.4300000000000002,0.00285609785038873
1.2000000000000004,0.003608595797504599
1.1760000000000002,0.003983909486143555
1.1735851121147372,0.0039999999999999845
1.1520000000000001,0.00414290415561425
1.1279999999999997,0.004423425135911386
1.104,0.0046966521842662715
1.0800000000000003,0.004989701459171326
1.0560000000000005,0.005290946108063511
1.032,0.005559856704311725
1.0080000000000002,0.005799240833056045
0.9840000000000002,0.0060653502199624326
0.9600000000000001,0.006388525086309954
0.936,0.006712072295020159
0.9120000000000001,0.007063429319160722
0.8880000000000001,0.0074471034345454145
0.8640000000000003,0.007897692216167911
0.8400000000000001,0.008400054896099188
0.8160000000000002,0.008933681097802838
0.7920000000000005,0.009557120461216529
0.7680000000000005,0.010235075933895228
0.7440000000000002,0.010991620163693412
0.7200000000000003,0.011923279415258965
0.7180737046647152,0.011999999999999898
0.6960000000000002,0.012850858483514763
0.6720000000000002,0.014038122498447554
0.6479999999999999,0.01533070780968459
0.6240000000000003,0.01700685337546594
0.6000000000000002,0.019078664665483167
0.5932033529479452,0.01999999999999919
0.5760000000000003,0.022325497190518417
0.5520000000000003,0.025877416292773077
0.5430625891650469,0.027999999999998703
0.5280000000000005,0.03202034340095118
0.5154015762968146,0.03599999999999797
0.5040000000000007,0.03921660610894443
0.4800000000000008,0.042029386794466786
0.4641693829793813,0.04399999999999705
0.4560000000000007,0.045584838254316314
-0.4679631435593774,0.04399999999999548
-0.47999999999999976,0.042576271268474845
-0.5442535600328897,0.02799999999999707
-0.5519999999999999,0.02611811353881284
-0.5137587007910516,0.03599999999999659
-0.5279999999999999,0.03191925250615041
-0.5039999999999999,0.03883672518525968
-0.45599999999999963,0.04579611118648268
-0.593453982116388,0.019999999999997943
-0.6000000000000001,0.01913292932830983
-0.5759999999999998,0.022256042548078076
-0.6240000000000001,0.017045359635863816
-0.6480000000000001,0.015384265300405986
-0.6720000000000004,0.014044275270169201
-0.7175111028597432,0.011999999999998878
-0.7200000000000003,0.011891186588236097
-0.6960000000000003,0.012912548664111921
-0.7440000000000002,0.0109925845650067
-0.7680000000000002,0.010230000973242843
-0.792,0.009546634527746277
-0.8160000000000002,0.008919042685057416
-0.8400000000000002,0.00838071300465754
-0.8640000000000001,0.007882937701205791
-0.8880000000000001,0.007443342963953477
-0.9120000000000001,0.007042477896378593
-0.9360000000000002,0.006689265269555112
-0.96,0.006368463349364778
-0.984,0.006044584891042818
-1.008,0.005773508248136652
-1.032,0.0055259394260861435
-1.056,0.005273045139124504
-1.08,0.005038559970549975
-1.104,0.004774706523640728
-1.1280000000000001,0.004482615676873648
-1.1520000000000001,0.004219666201370492
-1.1791759819190846,0.004000000000000102
-1.2000000000000002,0.0036229421240498963
-1.1760000000000002,0.004058609225463747
-1.4300000000000002,0.002857772525796853
-1.66,0.0022421530373819805
-1.8900000000000001,0.0018636589702218397
-2.12,0.0015900550795005927
-2.3499999999999996,0.0013706937594863268
-2.58,0.001231640952844431
-2.81,0.001142571368724598
-3.0400000000000005,0.001071838904742908
-3.2700000000000005,0.001034375494928201
-3.5,0.0010290755273327126
-0.3582640158300815,0.015408534018191315
-0.356184969959096,0.011500573922001454
-0.3546320992317493,0.009164204520799746
-0.3535182400215088,0.0075921308057385496
-0.34996677565326245,0.003682960522395218
-0.35073001017709726,0.0041000328124696965
-0.3585329511720189,0.0157335567231064
-0.3487783747449702,0.0022868929087896408
-0.3483960431340077,0.0017285438708492652
-0.3467635550658248,-2.2592353786057942E-4
-0.34682725577854434,-1.5462389437537907E-4
-0.36111039706502773,0.019317124790649814
-0.34518136830612756,-0.0021803496037097105
-0.3624349168570933,0.0209478305405806
-0.36418899469650234,0.02322590642276728
-0.34487608016196314,-0.002527215204017448
-0.3434501062071042,-0.004134898195218453
-0.3413409974277294,-0.006089757340556858
-0.34292464389602234,-0.004582677934512083
-0.3663364355661989,0.02670593403577999
-0.3666230065126882,0.027134158267002405
-0.3409730638481737,-0.006463203141708436
-0.33940795989924916,-0.008044471772159568
-0.33780007413238083,-0.009998918960134946
-0.3390215840481758,-0.008465698565135689
-0.36859236779446464,0.031042028212949352
-0.3370702859750118,-0.010689298592517785
-0.3357214820321205,-0.011953753023681266
-0.33345137196335106,-0.013908744496683572
-0.33511858834246033,-0.012426760053443618
-0.37023692608232417,0.03371502615602047
-0.3710689648856967,0.03495031505820262
-0.33316688952095946,-0.014162774966645284
-0.33121514304312394,-0.015840807051626018
-0.33119036621453446,-0.015863728486796014
-0.37243271759101815,0.03885768725184275
-0.3292633451289737,-0.01745625723885973
-0.3288347859542692,-0.017818790208119606
-0.3264221663163211,-0.01977389881035241
-0.3273115231497301,-0.01904242776097945
-0.3731976902115023,0.04276456730551889
-0.30267274692958807,-0.03448310949371352
-0.30198862289601425,-0.03479027861060363
-0.30098792068643915,-0.03523031213805983
-0.29928765734482865,-0.0358512841209808
-0.3213069004196968,-0.02368435438894617
-0.32145586734756637,-0.023569933811968737
-0.3253597178034071,-0.020648835337768946
-0.3239680652157563,-0.021729041506372032
-0.3234078486387303,-0.02217759596291957
-0.3741342194998013,0.04461398538882878
-0.29370016174838887,-0.037943805832877736
-0.29548050982876944,-0.037283782214373756
-0.28959822186905104,-0.03947271149575657
-0.29160008172191476,-0.03873031385012367
-0.2866283354287936,-0.04060930216492889
-0.2877073951892538,-0.040188122766943515
-0.3027205911311071,-0.034479960868325096
-0.2973808285307318,-0.036572239097158975
-0.31950388282346676,-0.02495833818047069
-0.3185637969762429,-0.025639734617245887
-0.3778760851001884,0.05058091513729339
-0.2857696083071701,-0.040941026991396394
-0.2838432206416843,-0.04168828611253099
-0.281890324885438,-0.04243669001344265
-0.27994899066324647,-0.04317988366264629
-0.30319839038748786,-0.03435685246270313
-0.3049871632885464,-0.033620225442743526
-0.30495141755997124,-0.03364787276088094
-0.3175519187474891,-0.026371621514236394
-0.31564512075604084,-0.02759525914959369
-0.31559982526738106,-0.02762746056768034
-0.3136476843530084,-0.028825586990804494
-0.3125037575566885,-0.029550966709312763
-0.3819360992805666,0.057538674359337974
-0.2781022987461864,-0.043929356157861775
-0.30502669077384437,-0.033596679636818505
-0.3058386714980762,-0.033071560190476704
-0.30554915460828425,-0.03346293404703209
-0.31169558907355593,-0.030079236817978736
-0.3824700325910747,0.05839719356140565
-0.3871567004498452,0.06621354819277794
-0.38973911044548676,0.06908682337842624
-0.3942602020236058,0.07403188923027065
-0.3975448380792508,0.07732988113171094
-0.4026262625871998,0.08185126797047283
-0.40535164332897744,0.0842618179983017
-0.2780677801952184,-0.04394381210059002
-0.3097433243623592,-0.031126741308684758
-0.30908029004968696,-0.031506906131799094
-0.3077911008254543,-0.032224342004357955
-0.4127587670110297,0.08967209855855375
-0.27608939029890034,-0.04472948827303548
-0.2741472340054803,-0.04547042906315816
-0.27235245247641127,-0.04611765280529592
-0.27025080553984987,-0.0469191074775057
-0.26825557903278624,-0.04767276230340867
-0.26442872221777936,-0.04915394832540572
-0.26274043690562193,-0.04985290790382722
-0.41315943621478934,0.0899921112765841
-0.4209673858774089,0.09553165628733555
-0.2586069296996778,-0.051389586111989675
-0.2605577508259269,-0.050672391010242665
-0.2567386410860762,-0.052070804460582376
-0.2663661149061737,-0.04839995303291282
-0.2625196013211454,-0.04994019934620568
-0.4236580134199671,0.09749355933519183
-0.23075886251548267,-0.061206897585995595
-0.22935625952610073,-0.061660074491705255
-0.2272211801949348,-0.06239167166340483
-0.22521309052571276,-0.06309414702882943
-0.23705224709265327,-0.05901660596518253
-0.235178073219027,-0.05967258366092616
-0.23902367809853925,-0.05835589155832507
-0.2547027525500003,-0.05281702951349401
-0.252752520220611,-0.053535838193652555
-0.2509652928411228,-0.054192940100236474
-0.4366296602358346,0.050186864730096946
-0.43518546769936445,0.05062801796760215
-0.4287356717190654,0.0740602247684444
-0.4287974586649972,0.07415429153246551
-0.4339798953090548,0.0818770376572846
-0.4366015572961165,0.08437933499940706
-0.42877496765736867,0.1015187992103586
-0.43658510334299466,0.10439863933690838
-0.44273280541087634,0.08969673435079756
-0.44440825208848245,0.09144566385598046
-0.18417915592370293,-0.07783025700106706
-0.18217893696916493,-0.07853832578882125
-0.18514256837247642,-0.07750108883805999
-0.19244192013884837,-0.0748375459013183
-0.19208821974980292,-0.07496173455290185
-0.19007413375542992,-0.07570155422686757
-0.20370291885982744,-0.0708351657249025
-0.205708429654354,-0.07013360496073646
-0.21548434962908758,-0.06660741094025228
-0.21362203175337485,-0.06728672265642972
-0.22330471531068524,-0.06378544093386104
-0.22135578413216933,-0.0645078153750141
-0.21942167647742788,-0.06520887274772205
-0.21744081593845851,-0.06590568627650062
-0.23313092758835943,-0.060397071309602424
-0.23116429332485972,-0.06107093103065688
-0.24884950948675677,-0.05496647811911539
-0.2468483789116166,-0.05569599467074193
-0.24173868798146664,-0.05751647335412363
-0.2410290025257822,-0.05773449022258317
-0.43339977941349067,0.054532801622000464
-0.4405359456038871,0.05014543814655412
-0.4444429271202046,0.04925701729198359
-0.42795431017308316,0.06624707992527647
-0.45221651906147153,0.0965991416114689
-0.4385407868429836,0.10531829418998354
-0.1621417268635705,-0.08580045811280985
-0.16067823627997246,-0.08630527477874822
-0.17793554949293464,-0.08013093938452631
-0.17832511190076822,-0.07997751060314881
-0.180267990063752,-0.079238548072711
-0.19004405883304074,-0.07571276181875147
-0.1880999039892784,-0.07644822564765258
-0.18632133320178917,-0.07709586451583852
-0.2017946067084987,-0.07153461437616376
-0.19983936957442514,-0.0722397075542578
-0.19790384204497408,-0.07292848235639068
-0.19395632807972576,-0.07430749454204087
-0.20584880464724373,-0.0700858578200878
-0.20962559760022664,-0.06874176240746505
-0.20784025651756022,-0.0693820344253232
-0.211579175389297,-0.06803212184917712
-0.24494241502287,-0.05638592671728192
-0.24298425559723724,-0.057083011451781684
-0.44835217743371236,0.04560818129043672
-0.44643621974448977,0.04673101369016122
-0.42880535068776726,0.0645521731560062
-0.43334806370008594,0.05843901043600147
-0.45397526405257493,0.0975184772150735
-0.4600238083930377,0.10294210259454595
-0.4522060970105741,0.10927951131771609
-0.46431862955942876,0.10533948111078417
-0.15877020218597804,-0.08702148605359084
-0.15849252165492228,-0.08713205783143887
-0.1626840103772892,-0.0856204362038288
-0.1294517165555157,-0.09762548401098745
-0.12761246227332512,-0.0983308942942471
-0.17641077135640618,-0.0807159338620692
-0.17443413607698108,-0.08144113180249246
-0.1724834291267136,-0.08215863979978244
-0.1706445451996168,-0.08288371733937473
-0.19591950577192996,-0.0736241622014217
-0.45226014688961036,0.043517747583931565
-0.14705271350203203,-0.09129023111936946
-0.14511633213589709,-0.09201304675405711
-0.14784955997304147,-0.09101568836756399
-0.15083246314699464,-0.0900208907817339
-0.14912059396244667,-0.09058565499226448
-0.15755137336788028,-0.08756915171857386
-0.16924287545670486,-0.08344340890942217
-0.16434402555446662,-0.08509050411636719
-0.1273550710510356,-0.09843170888095247
-0.13383810601563592,-0.09606604100504909
-0.13339813116082727,-0.09621814829189454
-0.13140564776081448,-0.09691681197820759
-0.10611768876752903,-0.10611268809276642
-0.10797270096621536,-0.10545986682883854
-0.45347146813369504,0.042830544671998955
-0.1452447205566286,-0.09205986530786357
-0.15099682092404546,-0.08997221531129654
-0.1568708149443508,-0.08787963401853703
-0.15496624425816585,-0.08863639453796468
-0.16861952363408683,-0.08369644634819189
-0.1663592513571489,-0.0844956470873445
-0.16475934913537005,-0.08497194668599897
-0.16656126635265775,-0.08443462946726772
-0.10813136188554322,-0.10540483524577143
-0.12589239208238084,-0.0990278874391857
-0.13583836015118775,-0.09539859077742381
-0.13533732977069496,-0.09556474473828032
-0.10520888266488772,-0.10647125170782556
-0.10653517661509637,-0.10602891539237982
-0.10613713873360948,-0.10616599008283889
-0.45616824461282013,0.041271252756220504
-0.14505458080182515,-0.0921854143229512
-0.1529749583792804,-0.08932987970751605
-0.1090353801650435,-0.10511658787084512
-0.1256013021891573,-0.09920026254570005
-0.1372714697496028,-0.09496931487950583
-0.10753016914062119,-0.10572828643144638
-0.4594846767100643,0.03892923563486974
-0.4600769583929913,0.03827520968229771
-0.1444742675974132,-0.09248150607587274
-0.14333850129888326,-0.09295868327444094
-0.14130817901060794,-0.09373759197809617
-0.11090978846878567,-0.10449505895064028
-0.10994646143647664,-0.10480553624219846
-0.12538891281064274,-0.09930527533438374
-0.13900761882366416,-0.09447629331110366
-0.1373271309196036,-0.09495437310206056
-0.13929757342310245,-0.09440117076886625
-0.10758154657227664,-0.1058032063951694
-0.10740770764894053,-0.10584041350321297
-0.4639844311200634,0.03678913927872613
-0.11297257229643691,-0.10383601410892358
-0.11195980876937935,-0.10415556496383244
-0.12439099803526157,-0.09980991721443919
-0.11777977023636822,-0.10215914886776392
-0.1197936401586385,-0.10147462446704922
-0.09826819524674027,-0.10918176925878705
-0.09627670904796447,-0.10988166630223054
-0.10740517349556207,-0.10600806664273048
-0.09897663459861386,-0.10894314994665703
-0.4667597581676214,0.03893521505588779
-0.4678880787710826,0.0399569876695163
-0.47179179779756086,0.04303799448566178
-0.47146677530354786,0.04284533509305918
-0.11587489479423115,-0.1028621441568946
-0.11391249835530806,-0.10354761749634248
-0.12362577105252003,-0.10014960747205157
-0.12013958277378306,-0.10136126416321815
-0.09435284889104344,-0.11057860381980572
-0.09320840495683215,-0.11104798443217669
-0.10729797124238065,-0.10625793710839009
-0.10034197035430796,-0.10850783819937246
-0.4756977135804106,0.04344623724532089
-0.1218719400717368,-0.10082014472048091
-0.09243642628363326,-0.11139006692711298
-0.10657544309418923,-0.10683771690420596
-0.10129660957299542,-0.10823708954919381
-0.10218777721834503,-0.10808862402054806
-0.1024320282984308,-0.10803352600639628
-0.06717462370336083,-0.12045407735757621
-0.06700194632250606,-0.12051134220692364
-0.0669245282579698,-0.120545337510313
-0.06507791399946553,-0.12130195113969172
-0.06497802741927935,-0.12134928584884627
0.005982485598550594,-0.14313960255650648
0.006503390549971358,-0.14295115793115393
-0.002632681266530834,-0.1438326118884605
-0.0043245784088009305,-0.1432172516240258
-0.004557864436476927,-0.1431325498746002
-0.006435504131428113,-0.14244972285573107
-8.786095657129305E-4,-0.14447149775635632
7.100194358366542E-4,-0.14505251865247637
-0.010307819519364702,-0.14104007178773353
-0.010855758939558553,-0.1408422385919752
-0.00837739405448418,-0.1417422744756854
-0.47758670852863616,0.042850365092746215
-0.09101755280103217,-0.11198793071120289
-0.08659236669448533,-0.11356468254043811
-0.08790637141391175,-0.11312320483881334
-0.08473615198132423,-0.11420474826467328
-0.08297774060998928,-0.11492166861829275
-0.10642308430648068,-0.1069496144874019
-0.10385125431617157,-0.10783177692629416
-0.0693768691437415,-0.1197441427923017
-0.06901397357491833,-0.11984070883246122
-0.06327674889217053,-0.1220833612319496
0.012369189254146266,-0.1408421857327255
0.011738651773334441,-0.14106852383934673
0.007862607371932702,-0.14246166361447626
0.009501915817353832,-0.14187079244124062
0.004056122167182966,-0.14383814635411676
0.00284132314392947,-0.14428063388296797
0.001956088185238012,-0.14460200934074235
-0.0122829615841344,-0.1403294270119936
-0.012681064796117313,-0.14018851695048404
-0.4796049781232812,0.04221346176835108
-0.09055210473935374,-0.11217686533520783
-0.08856210943804363,-0.11289934150638356
-0.08270453717400238,-0.11503692608014554
-0.08145264793611745,-0.11568892913940865
-0.10437985996340636,-0.10774051666488337
-0.07099463809842732,-0.11929431828316062
-0.07098392417025554,-0.11929710905063313
-0.061921476838156464,-0.12260512660726336
0.013715344012940023,-0.14036320484801684
0.01499182397574849,-0.13990855632654908
0.009805727953941776,-0.141761923248577
0.0023008129894883486,-0.1444782180886379
-0.01392221873865662,-0.13975412051835795
0.017548793532471508,-0.13900350966765923
0.017880274151833873,-0.13888767094184895
0.05084661380455247,-0.1269173304688484
0.052652194163238304,-0.12626408259196267
0.050611731641012354,-0.12700485154909746
0.10349714548971034,-0.10778598794711405
0.1049676356263625,-0.10727149900228547
-0.48351195337238895,0.0413326661583662
-0.08077108683778086,-0.11608601390877984
-0.07363204092187925,-0.11854267879288569
-0.07298716936469651,-0.11872358037744879
-0.07639660951578917,-0.11785001245998675
-0.0749821659931104,-0.11821353085383764
-0.061231340416084294,-0.12288725521334462
0.015778652929263483,-0.13963297743149117
-0.014350989168344899,-0.13961182183614818
0.019600352814580793,-0.13830173221190772
0.054739688517459396,-0.12553764015634333
0.05546172371156516,-0.12528571692085888
0.052801218239471474,-0.12621052418006584
0.05085611227408723,-0.1269434941872779
0.051069617839878054,-0.12688022583773162
0.10173423673486007,-0.10843240314725673
0.10555409413127294,-0.10706768687950863
0.10091699023912817,-0.1087420441980681
0.09192070254907828,-0.11203671368806992
0.09383544074129208,-0.11133324151936264
0.10633240271617463,-0.10681763949977983
0.3563050905620029,0.008494625807667605
0.35501097508519786,0.007009787568652447
0.3515079341609862,0.0031064154138284593
0.35239484280803524,0.003632217345563989
0.35823374472615466,0.010913390079659616
0.3602162067582219,0.014413656298481802
-0.49132518482558124,0.04044592731389625
-0.07981033987237679,-0.11660433782061658
-0.06024032794792207,-0.12342933224435215
-0.07704832076223941,-0.11772631972116539
-0.014724976828453341,-0.13948894642894347
0.019661233564110567,-0.1382827170934146
0.07363923612935266,-0.11868655777410876
0.07234846167866145,-0.11914576420880217
0.07173179792134138,-0.11937903362051865
0.05673017002344548,-0.12485129384210086
0.058792460577476044,-0.12413193086247803
0.05260390300390336,-0.12638562712447193
0.10032806106729761,-0.10899745405313777
0.09552944098847463,-0.11073954377681754
0.09150268235962947,-0.11220141713035822
0.09194045817873542,-0.11209113095283982
0.09207983163605653,-0.11205429676849535
0.08204060669392907,-0.11567453055860932
0.08371035899181845,-0.11509274783287649
0.10708892841326449,-0.10660539837110466
0.1479275978389574,-0.09187295060025953
0.1465349969555205,-0.09235257060738844
0.35044031553702437,0.0019268956232260264
0.34989101328473016,0.0011546187084266457
0.34830479401522646,-7.972032307472954E-4
0.348485121517779,-5.896497485948608E-4
0.3604477702071415,0.014817821681870564
-0.07911258464472526,-0.11701927315013053
-0.05897702251420961,-0.12389031403733494
-0.05746154373254519,-0.12437517686674143
-0.059250091668369476,-0.12379755173749789
-0.0554021496538219,-0.12510261835597092
-0.0534535251874321,-0.12590384432405408
-0.053424091330100766,-0.12591658583613502
-0.015115862649601634,-0.13938794175514108
-0.042964062461616465,-0.1300495922875612
-0.04379481361091896,-0.12967323309884157
0.02003619175657012,-0.13820900012785536
0.07616500935795878,-0.1178320095045116
