"Plane Section: Position[X] (m)","Plane Section: Position[Y] (m)"
3.5,0.0010708122513790304
3.2700000000000005,0.001078021407263152
3.04,0.0011199333624178072
2.8100000000000005,0.0011853685653473297
2.58,0.0012818350632228756
2.35,0.0014299365620463235
2.12,0.0016403995990136565
1.8900000000000001,0.001940883031514567
1.6600000000000004,0.0023277253250299
1.4300000000000002,0.00296907628902131
1.2000000000000004,0.0037917312226438725
1.1877673871674341,0.003999999999999895
1.1760000000000002,0.004200540646569776
1.1520000000000001,0.004358149395980195
1.1279999999999997,0.004664734676124196
1.104,0.004956723238246633
1.08,0.005254223942390712
1.0560000000000005,0.005559485301856914
1.032,0.005829877855259787
1.0080000000000002,0.006072831179443677
0.9840000000000002,0.006347443655442713
0.9600000000000001,0.006683301941104662
0.9359999999999999,0.007020521167760369
0.9120000000000001,0.007389242642048793
0.8880000000000001,0.007793564905263995
0.8640000000000005,0.008269953897907835
0.8400000000000003,0.008800396850078166
0.8160000000000001,0.009360317772801947
0.7920000000000003,0.010013359861945641
0.7680000000000005,0.010722841981816437
0.7440000000000002,0.011532677455646657
0.7329164721020454,0.012000000000000049
0.7200000000000003,0.01254768703807059
0.6960000000000002,0.013493651389490463
0.6720000000000002,0.014735335671674253
0.6480000000000001,0.016103307627273168
0.6240000000000001,0.01785540426969775
0.6012886929903017,0.01999999999999932
0.6000000000000001,0.020131378836467144
0.5760000000000004,0.023467575253760833
0.5520000000000005,0.027321897607789112
0.5490927092857592,0.027999999999998686
0.5280000000000006,0.0334503929267044
0.5205962210834117,0.03599999999999799
0.5040000000000007,0.040822256721184225
0.48263694914268385,0.04399999999999716
0.48000000000000087,0.04442604009514471
0.4560000000000005,0.049254897350780404
-0.5503821753954193,0.02799999999999702
-0.552,0.02759441065799393
-0.5193742743282782,0.03599999999999663
-0.5279999999999998,0.03337454231086109
-0.48376178423336447,0.04399999999999552
-0.5039999999999998,0.04045957120276672
-0.4799999999999997,0.044662677342703176
-0.45599999999999974,0.04813614792638353
-0.5759999999999998,0.023423444671108976
-0.6019709613647386,0.01999999999999801
-0.6240000000000001,0.01790379992715365
-0.6,0.02020425825868966
-0.6480000000000001,0.016158640378795608
-0.6720000000000003,0.014742835224248607
-0.6960000000000002,0.013557298825812745
-0.732603970359209,0.011999999999998855
-0.7440000000000003,0.011534461854595297
-0.7200000000000003,0.012517814018963487
-0.7680000000000002,0.010717410502366125
-0.7920000000000001,0.010002734602558384
-0.8160000000000002,0.009345162404682607
-0.8400000000000003,0.008779507030206565
-0.8640000000000001,0.008255120664593732
-0.8880000000000002,0.0077909817564685005
-0.9120000000000001,0.007368021812685245
-0.9360000000000002,0.0069978104522776296
-0.96,0.00666255108866418
-0.984,0.0063231526939616055
-1.008,0.006042459494559805
-1.032,0.005789098576473646
-1.056,0.0055339510544552845
-1.08,0.0052984334780615035
-1.104,0.005030922460574829
-1.1280000000000001,0.004727287573421509
-1.1520000000000001,0.004449672060472956
-1.1906692809455564,0.004000000000000053
-1.2000000000000002,0.0038136217997466583
-1.1760000000000002,0.004291633266097659
-1.4300000000000002,0.0029702476799383327
-1.6600000000000001,0.002325316512702632
-1.8900000000000001,0.0019381340202866827
-2.12,0.0016544839705276177
-2.35,0.0014271228321320923
-2.58,0.001282405169485252
-2.81,0.0011890607013618523
-3.04,0.0011158796048077514
-3.27,0.0010770048106349766
-3.5,0.001071251829300472
-0.35853246195983746,0.011680024473416789
-0.35687020576675593,0.009098713379396613
-0.3546304604475363,0.00645970742609337
-0.3535567030574407,0.005189764612007921
-0.35072831195436716,0.0014199376888582491
-0.3501259333571525,0.0012807203792995448
-0.35932020489977967,0.013006959181448494
-0.34877662612356236,-3.486937131579243E-4
-0.3485614510810634,-6.736788895110402E-4
-0.3614306602374929,0.016914928565970964
-0.34715323475807974,-0.0026279509445555653
-0.3456046785476879,-0.004582337248210347
-0.3468256649029924,-0.0030074166772570765
-0.3624334625126623,0.018129892997130845
-0.36457319096018087,0.020823738147632394
-0.34487444092497266,-0.005343375508121364
-0.34374723852963684,-0.006536975009545174
-0.3416329761491639,-0.008491821846129247
-0.3429228486972073,-0.007226986342358875
-0.36633508795256825,0.023812167178743432
-0.36687634864512836,0.024731864408249066
-0.34097128651224445,-0.009147500937765401
-0.3396728681475493,-0.010446543187929206
-0.3379598564120775,-0.012401063372366235
-0.3390197670289657,-0.011120469122918315
-0.3689098802137348,0.02863977117027609
-0.33706835402207486,-0.013224230016218978
-0.33583340027954733,-0.014355920135701156
-0.333556082264095,-0.01631089971344596
-0.3351166151303151,-0.0149276827601552
-0.370236057618428,0.030299976416415283
-0.3719716258382637,0.03254851498599187
-0.33316489918569975,-0.016659323186247983
-0.33127662650310274,-0.018265881031487623
-0.3740058454891692,0.03645642230819105
-0.3312131260819004,-0.018320750816682073
-0.32926129100374935,-0.019906050811032486
-0.32888810814665215,-0.020220951135767617
-0.3264761873106871,-0.022176040291653123
-0.32730945605330336,-0.021491507686415223
-0.37413673045123785,0.037152407340897455
-0.30099621597488274,-0.037647971642928865
-0.29929343428627714,-0.0382698249606756
-0.3213414718778612,-0.026086471681095458
-0.32145374980200037,-0.026000484053766634
-0.32535763326055545,-0.02309189875117247
-0.32400955828294936,-0.02413117398465224
-0.3234057456235569,-0.024612636881560908
-0.3747384033943918,0.040363269967000334
-0.2937011695327392,-0.04035461854433616
-0.29548417929005505,-0.03970144987358183
-0.29160379267226333,-0.04114857891660733
-0.28961049035355796,-0.04191443725926528
-0.30268715303438076,-0.03689664593070958
-0.29738621855095937,-0.038992944096221185
-0.3195017322218605,-0.027361603560324868
-0.3185487795819978,-0.02804187081732723
-0.3780276410850676,0.04817845027497317
-0.28939533923867894,-0.04200068967659741
-0.287726702827495,-0.042649142685372676
-0.28578741445429234,-0.04339793342515519
-0.2838577750080066,-0.04413628190678088
-0.2819083047957536,-0.044894074393019075
-0.28083723296862906,-0.045334229562978
-0.30321635026848054,-0.03674995496804448
-0.30499264297741846,-0.03602276895343611
-0.3049511086856629,-0.036049553558724794
-0.31754975154262005,-0.028768051140801817
-0.31565853042403413,-0.029997349373163115
-0.31559766183971655,-0.030040577001907265
-0.3136454980579466,-0.031222106396418516
-0.3124778673962556,-0.03195306435056561
-0.3819340411656741,0.055813693771529435
-0.2799798446376679,-0.04567255059255809
-0.30503037545948913,-0.036002258523814834
-0.3058364569786223,-0.0354741307191795
-0.30556311038961714,-0.035864944845263425
-0.31169338373879185,-0.03246439433369361
-0.38203331636343374,0.055994213824097465
-0.3863764437774915,0.06381025208794877
-0.38973684808602327,0.0677235899022221
-0.39312125238947415,0.07162824552456189
-0.3975421015181183,0.0766282573347806
-0.40018368358190204,0.07944649753296572
-0.4053480766282448,0.08464643506366724
-0.2781258643123043,-0.0464020505808456
-0.30974110779331565,-0.03350814487831007
-0.30903581866226143,-0.033908992118176384
-0.3077888684502783,-0.034596856861451676
-0.40823462566668217,0.08726555427330496
-0.2760982298528824,-0.04716182697220962
-0.27414728200015426,-0.047878674890359026
-0.27235489945293934,-0.04853247295801501
-0.2702568270318033,-0.049343724450438116
-0.2682645258403823,-0.050105396750614636
-0.4131550718545296,0.09141152977390617
-0.4185840435527003,0.09508648216843799
-0.2586015720685363,-0.053783022966481374
-0.26055456038977676,-0.05307176702072268
-0.2567354404956227,-0.05447015274640185
-0.2663814190370941,-0.05085001074644553
-0.26492080724004696,-0.05145814038484478
-0.2625215650582437,-0.05235370019164891
-0.26445600404803493,-0.05163683233384691
-0.420963162767311,0.09683071287864897
-0.23113183893199002,-0.06339010117810853
-0.2331043803864869,-0.06273243124981079
-0.22933760409140985,-0.06401705963390479
-0.22720976090714534,-0.06476848669129387
-0.22521004473469253,-0.06549390925678854
-0.233452922377684,-0.06262440617470141
-0.23703614219754954,-0.06138058447759023
-0.23516549771790787,-0.06204623399800133
-0.23899401736469578,-0.06068272109692736
-0.25470040193841137,-0.0552187072663791
-0.2527493320507028,-0.05593522074362526
-0.25096078598801497,-0.0565887088607087
-0.43269230486363874,0.07947296231558089
-0.4365983626783706,0.08430777863474553
-0.4282924688014501,0.10290688824106138
-0.43932365414592633,0.087290863386641
-0.44440430048202084,0.09237178262867003
-0.18416933835045918,-0.08021145585308412
-0.18217467234073792,-0.08093474220509422
-0.18695311029287115,-0.0792405832652353
-0.1863060646784298,-0.07946212586943768
-0.1939416737548741,-0.07667543907616173
-0.19208178124953296,-0.07735219424210868
-0.1901981336080299,-0.07805649879658677
-0.20905651802611075,-0.07131571801260761
-0.20781784584917704,-0.07172872545581697
-0.2056921051631288,-0.07249697479970756
-0.20369968159518842,-0.07323440089916983
-0.2154814589107478,-0.06900759736314732
-0.2136186941096561,-0.06968568426014296
-0.22330595148509735,-0.06619693792313319
-0.2213516929469339,-0.06690471279683696
-0.2194122671357594,-0.06759119548291916
-0.2174349828141729,-0.06829780919830308
-0.24556344190051246,-0.058521496615727364
-0.2449181746516075,-0.058727615007776256
-0.24884244940297948,-0.057355249697346705
-0.24683734646478384,-0.058073879840010514
-0.24293500331179116,-0.05935615337882466
-0.24097741530077987,-0.060001231841151775
-0.4302559690811715,0.0716584763422966
-0.44816982092159907,0.09511056750752597
-0.4365796111117928,0.1073416945054061
-0.4522105245238084,0.10008417945393148
-0.1626710681742188,-0.08799307076014998
-0.160675418184468,-0.08870565378290902
-0.18026977252670684,-0.08165153680837896
-0.17919738785673694,-0.08207058773295571
-0.1900421029849215,-0.07811550647622184
-0.18809296632756897,-0.078837318036072
-0.20178959429422313,-0.07392898475999093
-0.19983289499961585,-0.07463007065881239
-0.1978938857412838,-0.07530930329131134
-0.19480858422135594,-0.07637418023228423
-0.209614801840054,-0.07112028472332649
-0.21157329340109882,-0.07042411059080836
-0.4328647721192355,0.06384809754109559
-0.45545735387616715,0.10292900276790809
-0.45220423923689057,0.1078048554555911
-0.15952685820536963,-0.08915454786506066
-0.1632817017203333,-0.08778443386078952
-0.13098971879555724,-0.09946345936064654
-0.13140077120551974,-0.09931154820554539
-0.12945308811693862,-0.1000373433193523
-0.12805757670900833,-0.1005750057852162
-0.10685084322853172,-0.10824379921534458
-0.10611355406632203,-0.10850945671849424
-0.1783295114412557,-0.08239767217070315
-0.17640509481529865,-0.08310848244479718
-0.17442682433885626,-0.08382919915716275
-0.17248553270592445,-0.08457251026956102
-0.17065258671642036,-0.08531386208503604
-0.19590619714620516,-0.07599579537682646
-0.4503132017586037,0.04823729686933437
-0.4522538481126024,0.04686665785869765
-0.4366207083581085,0.0568589516292462
-0.4372629475845806,0.05603917544125105
-0.44052957333105,0.053648379761429194
-0.44443651438177634,0.052801101768105346
-0.4483443277004387,0.05088235349535926
-0.4457219373407352,0.05213981048398093
-0.14704960543926818,-0.09368981573808115
-0.14643932485351882,-0.09393008981646438
-0.1489952860998761,-0.09299743888599418
-0.1509820333861454,-0.09233979453337873
-0.1491077141070881,-0.09295846075681112
-0.15879306505051585,-0.08949224501811248
-0.15849241177943701,-0.08962567693132659
-0.16991214518351733,-0.08559920365083892
-0.16544002766708624,-0.0870905444321945
-0.16473386979075674,-0.08731022511680755
-0.1677247223352033,-0.08639737770677253
-0.1665386663272436,-0.08678080134460214
-0.1315725058401334,-0.09925080477514947
-0.1345191047137789,-0.0982172430787233
-0.13339145405069952,-0.09860795064663291
-0.12761464963884506,-0.10074499007552322
-0.10566218200401192,-0.10867753270744641
-0.10796753994320384,-0.10785382330097065
-0.45611048693668144,0.0443357650581617
-0.45616218670702696,0.04430267508192207
-0.14632950385579468,-0.09406383005604126
-0.1464937317676558,-0.09397767766695163
-0.15174369531239845,-0.09208823253595494
-0.1568773370345755,-0.09030561408022961
-0.1549563078730381,-0.09101727092002322
-0.16861967460626304,-0.08610496837322891
-0.10840203869561177,-0.10770553301977807
-0.12649035575138837,-0.10120931778655855
-0.13655069024373517,-0.09753837780713664
-0.13532688777240953,-0.0979442304522907
-0.10585708222706876,-0.10863416839004195
-0.1060530786134904,-0.10855526994354688
-0.10771749381930779,-0.10799694821879939
-0.10612812125048476,-0.10854937857525548
-0.46006994426635733,0.04245242006566936
-0.14529869988490685,-0.09458046371199066
-0.1529605298931263,-0.09169844462613627
-0.10993586968249745,-0.10718461102589748
-0.11003117935852788,-0.107152701861759
-0.12617700369436438,-0.10141732497056427
-0.13817231434004937,-0.09704032682518836
-0.13730626651752778,-0.09730529834827983
-0.14018293038983148,-0.09644716931500658
-0.1392702814760914,-0.09673448466566367
-0.10798521643297757,-0.10790226631405857
-0.4635646106173775,0.040435582054447194
-0.1450827361704948,-0.09467068098277476
-0.14333596875006951,-0.09535985181887008
-0.14129369279531814,-0.09610600191401746
-0.1118775072545393,-0.1065414356998739
-0.10831413124399158,-0.10784168465965004
-0.12563814637005372,-0.10170933939553842
-0.4639781230998882,0.04008468323819042
-0.46465222801931666,0.040436467467514066
-0.4678828910338631,0.041906802927449055
-0.11385781513997482,-0.10591250371565496
-0.11194358093876693,-0.10651919570538136
-0.10806910649831365,-0.10802475972444096
-0.1251051608897677,-0.1019489333866021
-0.11978351153390514,-0.10385497409265423
-0.11777757596751193,-0.10456124178322604
-0.09826133965306774,-0.11157108557665635
-0.09627123736370091,-0.11227477469616678
-0.10807718057721537,-0.1081542971357115
-0.10805018264465109,-0.10817216597753035
-0.09975307338753722,-0.11105921732024956
-0.4717867547314939,0.04483966201169451
-0.47094905116053315,0.04434784491148533
-0.11389297528469991,-0.10590221976325531
-0.1158713915754796,-0.10526065002081722
-0.12363035506434948,-0.1025702791426799
-0.12081307691747772,-0.10351508237110035
-0.09435252870245169,-0.11298582995169495
-0.0935978843184768,-0.11330519926564422
-0.10812847789200024,-0.10829487914732872
-0.10032557748784873,-0.11087101907525626
-0.47569251115612243,0.04544754656960599
-0.10816342613234553,-0.10834159590818718
-0.12185731370342373,-0.10318817035511091
-0.0924409369356142,-0.11381053454322604
-0.10814921062942573,-0.10835169790959372
-0.10709049264920946,-0.10904922865704955
-0.10195824305040982,-0.11039506866785913
-0.10314537536514995,-0.11017264468634799
-0.10214249948361981,-0.11037265039588894
-0.06729708359798353,-0.12280849517237996
-0.06699865958673669,-0.12291043739845255
-0.06691863325886278,-0.12294658883926105
0.005985508897006836,-0.14553903524067768
0.0066702754879625105,-0.14529127058573768
-0.002629544665018927,-0.14623207820528056
-0.004453944391209697,-0.14556859306943315
-0.0045547152238009855,-0.14553199878779224
-0.006432365096510606,-0.1448492147818227
-8.754849077812948E-4,-0.14687092942506086
7.13110110547366E-4,-0.14745201196862184
-0.01030459065205565,-0.1434393216039298
-0.01104272107552218,-0.14317262148203658
-0.008374224213380268,-0.14414168469381822
-0.4789033613482394,0.04435432039649877
-0.4795998613414545,0.044097698709205324
-0.09054056469009991,-0.11455334759234664
-0.08854734416727617,-0.11526698485721507
-0.08658032550220637,-0.11593979017516497
-0.08472589058318208,-0.11658473268645676
-0.08315833842647291,-0.11725501169915638
-0.10432386910212571,-0.10999519303871587
-0.10497408667249397,-0.10982148919357489
-0.10644318902966887,-0.10941283239112784
-0.06968308106302196,-0.12203153012841411
-0.0690036307526121,-0.12222046794397717
-0.06513203766028328,-0.12369217145082155
-0.06507967443187479,-0.12371488016211676
-0.06328394088577781,-0.12450702907039264
0.011741366444814934,-0.14346711556876512
0.012690508082723796,-0.14312617952996193
0.007865532256662703,-0.1448608244902546
0.009720189287967142,-0.1441922220489053
0.004059181303617767,-0.1462376752824877
0.002827418078484341,-0.1466864144998567
0.0019962227878907463,-0.14698817876725573
-0.012279214884447918,-0.14272725811856335
-0.012885595288731743,-0.14251250541783878
0.10353184440851255,-0.1101648528896837
0.10349719172630309,-0.11017723065559423
-0.48350729283350946,0.042647975900047715
-0.08271163920094202,-0.11746449749749296
-0.0815986154487776,-0.11803489444197643
-0.07127962087519565,-0.12158946590606753
-0.07097111066874182,-0.1216701009378931
-0.06328270276438491,-0.12450778517764798
0.015354482163639358,-0.14217751877080578
0.013717417625417559,-0.14276003139052776
0.009808471625740795,-0.14416059011547144
0.002303892861403871,-0.14687780084193994
-0.01415001086177239,-0.14206963193701816
0.017550462019106157,-0.14139922046633474
0.01837398228342535,-0.141109030406877
0.05280222709654804,-0.1286044179569077
0.05328542309376859,-0.12843448150216358
0.050848555742792644,-0.1293137944335238
0.05034757445875138,-0.12950106326834032
0.10345145375627166,-0.11019403860157825
0.10555049111483858,-0.1094488772818206
0.1061033806441711,-0.10925899717706332
-0.4913204908494507,0.04179373195828564
-0.08077725290333598,-0.11851102765508209
-0.07402991857079305,-0.1207966546978321
-0.07297440600281449,-0.12109671304802706
-0.07680436469459385,-0.12010040772222556
-0.07496279620233665,-0.12056856305424181
-0.06124401184710692,-0.12533009008708812
0.015780235414373386,-0.14202845149050802
-0.014345368744072964,-0.14200451892993368
0.019597709354398755,-0.14068556503904078
0.0547398560647067,-0.127929215920652
0.0559567604392103,-0.1275062615677842
0.05172553333492358,-0.12904240254667085
0.05085556758633466,-0.12933310822164473
0.10173623650391092,-0.11082902662971018
0.10095041911342319,-0.1111297725277795
0.09231248110656509,-0.11430736891617421
0.09383473733640472,-0.11372241852268758
0.10713989127451554,-0.10892429875513025
0.3563067227243162,0.005781149035362407
0.35523082208573803,0.004612751283317198
0.35173613238770285,7.093449635781654E-4
0.35239648760260117,8.875235525372758E-4
0.3586475905636406,0.008516221037552417
0.3602171055864245,0.010856254786684566
-0.07995521976081416,-0.1189506845355127
-0.06022769177215836,-0.12583298288340533
-0.059478092194253984,-0.1261065061008628
-0.05924013916718778,-0.126178388980864
-0.07702344550786293,-0.120066269729506
-0.014931438259424796,-0.14181224828961844
0.01989080549118858,-0.14059995518815468
0.07458298293012008,-0.12074403799884789
0.07430656675667753,-0.12083971445821239
0.07235099409375981,-0.1215438538695616
0.071954030142071,-0.12169847556735816
0.056730122783978966,-0.12724227720513342
0.058793155506657604,-0.12652495786169207
0.05313158965384253,-0.1285943437320815
0.05283033588056547,-0.1286818422598629
0.10066513465546606,-0.11127494993164015
0.09620654657024943,-0.11289363399110988
0.09579613429139647,-0.11303432184564763
0.09220277652156428,-0.1143560581044727
0.09280125914206204,-0.11419232667703444
0.0840887990902924,-0.11733105165566181
0.084858382452623,-0.11707597675587805
0.08203868651844345,-0.11806035474946397
0.0768343909161537,-0.11998907546450682
0.07624845313667818,-0.12018434870811925
0.10763872581562103,-0.10878174126153384
0.10802737239756947,-0.10866450792741911
0.14859171860000342,-0.09400912264998156
0.1465454224032895,-0.09477239823875548
0.3504419970207766,-7.891251339331702E-4
0.35013682932942225,-0.0012424787149046778
0.36120720489419234,0.012420388588167113
-0.07911885961123194,-0.11944459237349664
-0.05744994206839836,-0.12675149291629262
-0.05539795232902529,-0.1274992257310131
-0.05359639398456567,-0.12825269329984093
-0.015321113200868694,-0.1417116888013892
-0.04309940086109845,-0.13239909414615814
-0.04379326588884656,-0.13207710898059152
