"Plane Section: Position[X] (m)","Plane Section: Position[Y] (m)"
3.5,0.0017015115288562207
3.2700000000000005,0.0017134864080288192
3.04,0.0017808365087087783
2.8100000000000005,0.0018856642727304472
2.58,0.0020323660083261504
2.3499999999999996,0.002261444867234002
2.1200000000000006,0.0025765922113552943
1.8900000000000001,0.002983884659292044
1.6600000000000004,0.0036034734926638397
1.5918669266860466,0.0039999999999999255
1.4300000000000002,0.004937091056776274
1.2000000000000004,0.006612883013001711
1.1760000000000002,0.00729259354421669
1.1520000000000006,0.007457993369529035
1.1280000000000001,0.008070661859702292
1.104,0.008553728547725913
1.0800000000000005,0.00895517167691736
1.0560000000000007,0.009389174824097384
1.0320000000000005,0.009743333088536624
1.0080000000000005,0.010105139817508789
0.9840000000000003,0.010548896282262563
0.9600000000000004,0.011111974558710044
0.9360000000000004,0.01173920888056489
0.9274987969179274,0.01199999999999993
0.9120000000000004,0.012473818994041881
0.8880000000000003,0.01326473672568007
0.8640000000000007,0.014132355408278629
0.8400000000000003,0.015087013572483293
0.8160000000000003,0.016109670039008366
0.7920000000000003,0.017272208704202575
0.7680000000000002,0.018562725535307086
0.7448946375529257,0.01999999999999951
0.7440000000000004,0.020059516180003525
0.7200000000000004,0.021766642467037772
0.6960000000000005,0.02351358646174301
0.6720000000000006,0.025780092445766407
0.6522791282066814,0.027999999999998765
0.6480000000000008,0.028510572206414956
0.6240000000000008,0.03188511223944113
0.6020473647496281,0.035999999999998124
0.6000000000000008,0.03643665850129682
0.576000000000001,0.042416641910976986
0.5711742374599331,0.04399999999999736
0.5520000000000006,0.0504788074845612
0.5475810090787427,0.05199999999999705
0.5280000000000002,0.05954375023366308
0.5267834289379983,0.05999999999999599
0.5105427490494565,0.06799999999999537
0.5040000000000004,0.07162716326941833
0.49617954938324943,0.07599999999999466
0.48509593830447517,0.08399999999999391
0.47999999999999976,0.08942479022335414
0.4775020758836491,0.09199999999999287
0.47429119592600777,0.0999999999999924
0.4778453079121948,0.12166666666665957
0.45599999999999874,0.13021119704860099
-0.5713224742494234,0.04399999999999592
-0.5759999999999997,0.0425074287341193
-0.5483089268285983,0.05199999999999534
-0.5519999999999998,0.05066651829193776
-0.527881422671344,0.05999999999999475
-0.5279999999999998,0.05995685663140033
-0.6023451418696818,0.03599999999999691
-0.6240000000000001,0.031950220940175356
-0.6,0.0365055787138933
-0.5099325407599178,0.06799999999999376
-0.4929228171569101,0.07599999999999316
-0.5040000000000001,0.07070047103269597
-0.6525770613254753,0.02799999999999789
-0.6719999999999999,0.025779570887118214
-0.648,0.028561633361581587
-0.48246101177473216,0.08399999999999219
-0.47525361154543233,0.09199999999999155
-0.4800000000000003,0.0867663958472855
-0.696,0.023603151306123456
-0.4717468219244902,0.0999999999999909
-0.44227217047028616,0.1216666666666573
-0.43200000000000116,0.10979155294793078
-0.72,0.021775282489025518
-0.4744782645347613,0.12166666666665749
-0.7452331861539239,0.019999999999998595
-0.768,0.018597708188789468
-0.744,0.020081190326471723
-0.4560000000000036,0.13161463014098146
-0.7919999999999999,0.017302967788464702
-0.8160000000000001,0.016130970306554346
-0.8400000000000002,0.015093703524847787
-0.8640000000000002,0.014112465188905113
-0.8880000000000003,0.013264239131528313
-0.926078852234071,0.01199999999999927
-0.9360000000000002,0.011693370203562061
-0.9120000000000001,0.01243595540692994
-0.9600000000000002,0.011080317914045047
-0.9840000000000002,0.010481939984954926
-1.008,0.010016211073679991
-1.032,0.00960651646797446
-1.056,0.009255783048138948
-1.0800000000000003,0.008909338744226471
-1.104,0.008541596107791594
-1.1280000000000001,0.00818791838169961
-1.1520000000000001,0.007766281440022591
-1.1760000000000002,0.0075952152118410245
-1.2000000000000002,0.006701898754725821
-1.5907035418818591,0.004000000000000116
-1.6600000000000001,0.003603367567326628
-1.43,0.00491456080173522
-1.8900000000000001,0.0029809814456177573
-2.12,0.002579500421354218
-2.35,0.002257025495055418
-2.58,0.002035409656519641
-2.81,0.001882028291480767
-3.04,0.0017744288605480748
-3.2699999999999996,0.0017151029972902196
-3.4999999999999996,0.0017024632936305459
-0.3562601123618317,-0.02621277307119227
-0.3584973325542425,-0.024312226924154003
-0.3545936891890973,-0.027957635954214088
-0.3624005817322006,-0.020115753819746077
-0.36045572758238503,-0.022303520864127777
-0.3639074912229819,-0.018394800749000316
-0.3525362693082943,-0.030121687810173235
-0.3664605481223445,-0.014486723496836029
-0.3663029652838409,-0.01470915622640581
-0.3507253250648242,-0.032076108714596
-0.3506904066669474,-0.032107494691583804
-0.34873853691486434,-0.03386299920000148
-0.3485680457180126,-0.03403077735944803
-0.34651129932107455,-0.03598537409108615
-0.3467867376715196,-0.0357170732161469
-0.3690384823763567,-0.010578628449403733
-0.3448349500087125,-0.03758733652821135
-0.3444696137301086,-0.037939960049412275
-0.34240136682661537,-0.03989456500758128
-0.34288314450049323,-0.03943265239673191
-0.3702053271222772,-0.009272204107781762
-0.37246343337949006,-0.006669927513896736
-0.34093133882916205,-0.04127774023449837
-0.34032940557065827,-0.04184917262269709
-0.3382577713773527,-0.04380378000386382
-0.338979532782591,-0.043122303493785256
-0.37410841232242786,-0.004846494000750517
-0.3370277176395611,-0.04495415012992809
-0.33614843058886057,-0.04575841435731395
-0.3339774177143003,-0.04771309282605061
-0.33507587327935184,-0.046745151840033285
-0.3759909924068353,-0.002761153180820564
-0.33312398173626495,-0.04847019308014997
-0.33161783967808106,-0.049667906179220164
-0.3780108178720901,5.293509017938737E-4
-0.3783966921988188,0.0011468186638602786
-0.33117197948161176,-0.05004046224536631
-0.3292198864723876,-0.05148385870126137
-0.32905453297976817,-0.05162286526359767
-0.3265978176121282,-0.0535777481010537
-0.32726785522679214,-0.05301359922341863
-0.38055512530307006,0.00505461363369143
-0.321297667988087,-0.05748779040373443
-0.32141161919579625,-0.05740389694362905
-0.32531589350096746,-0.05464052668930052
-0.3241573973082441,-0.05553261928231623
-0.32336384865501844,-0.0561512542333215
-0.38191262335321335,0.006744076970966807
-0.38392321990287404,0.008963273898668135
-0.29968754528143643,-0.06983525239539401
-0.2993799484813603,-0.06993271467413303
-0.31945944798069165,-0.05873796349465009
-0.31848790741032235,-0.05944292578150439
-0.31544308303639035,-0.0613982293051441
-0.3155550451078041,-0.0613215992231866
-0.3858152434429207,0.011820000111259898
-0.3864466725166026,0.012871329974292139
-0.28366346341303866,-0.07568452732966646
-0.28187131564587187,-0.07631071090536312
-0.2799117424794716,-0.07700391498316662
-0.302738993488995,-0.06836133948192011
-0.3018518133300818,-0.06891976612156779
-0.30495455077467387,-0.0674228322617943
-0.30492700571615855,-0.06744588420721645
-0.2985377616046654,-0.07025867299946473
-0.3011362048632876,-0.0693176188560567
-0.31750733376495344,-0.06015171378368133
-0.3136027942660885,-0.06254434971989348
-0.3123149316465428,-0.06335359243424692
-0.387954610614637,0.016778659632004596
-0.27803958202173773,-0.07768359080038742
-0.2937593395930348,-0.07203037013593407
-0.2955445673881389,-0.07137681115393373
-0.29165504280904486,-0.07280686801815638
-0.28964881119922614,-0.07353746498053076
-0.28774709248531466,-0.07422304158244548
-0.28579063922181236,-0.0749247893645186
-0.2838452389057467,-0.07561994077111368
-0.304988149634113,-0.06740293272285154
-0.30579335706268396,-0.06682885882386462
-0.3055071765847021,-0.0672647131573585
-0.29745613898436074,-0.07066911712902392
-0.31165055701377753,-0.06378609788392421
-0.3897155833914674,0.020083505001696342
-0.4030999063020372,0.04803950136059097
-0.4053176235611684,0.052186376147635063
-0.260362953566478,-0.08406464341281422
-0.2584111743949704,-0.08477921374796912
-0.25653535521607806,-0.08543978787856747
-0.2760050052314206,-0.07842434108490871
-0.2740535291679532,-0.07913974235264895
-0.27226016690940624,-0.07979085463003097
-0.2701425147732357,-0.08054844319438348
-0.26813219092328666,-0.08126071806569032
-0.2642651314086694,-0.08263171827297247
-0.2623281723447022,-0.08334168067322406
-0.3096981928651168,-0.06485044804166533
-0.30889948523380534,-0.0653091610712537
-0.3077458520378856,-0.06594740098501158
-0.3924479000172796,0.024594375770747485
-0.39570289224193955,0.032409206130672275
-0.39751677393834806,0.035896638799470276
-0.39957857856324075,0.04022448048553002
-0.4071414709728348,0.055854894371559244
-0.236873522381194,-0.09245285158175606
-0.23501054107544245,-0.09313950417355557
-0.23882972008604142,-0.09175039410038562
-0.254490094704286,-0.08616032184597822
-0.2525338735437871,-0.08686271502667535
-0.25074022145891994,-0.08750220588597
-0.266221800922449,-0.08193055419646927
-0.410191411539616,0.06366957805391874
-0.4510828071671953,0.13401134647773816
-0.452133339697483,0.13508053675858797
-0.21537656193495536,-0.10023804023342825
-0.21350642140800968,-0.10089590709414924
-0.21571422781776264,-0.10011984523973987
-0.2329737638121105,-0.09389240885469771
-0.2310210983069978,-0.09460454941768197
-0.22923177301675457,-0.09524495930412884
-0.227108945890769,-0.09601013051650954
-0.22510902578486436,-0.09673499290133732
-0.24862091966971123,-0.08826609902945724
-0.2466192087738595,-0.08899402453596277
-0.2423042518141803,-0.09056081829713572
-0.24081202594398224,-0.09106592245532096
-0.4129061600734956,0.07148402196669101
-0.41650392076965936,0.08711159951447303
-0.42091207187227236,0.09490248049749611
-0.42554577457306564,0.10274307133126787
-0.4365210324402677,0.11733080358045363
-0.4374393808829581,0.11837658306382302
-0.4677526600482667,0.1430261361352404
-0.20950178988273377,-0.10232847389656362
-0.20772307560388364,-0.10298690922282158
-0.20560417939320558,-0.10377391985961923
-0.20361241547709802,-0.10451315715918638
-0.21145747806142573,-0.1016246196132669
-0.2232036020097932,-0.09743437635894855
-0.22125217230239286,-0.09814990470603965
-0.21931915768718044,-0.09885395716979728
-0.21734101135728445,-0.09955820379832286
-0.24471562159091256,-0.08969047043277939
-0.24276193573508503,-0.0903998138325228
-0.4805833818606427,0.13403244883054938
-0.18875712744718542,-0.10995327051489057
-0.18998857508780742,-0.1094867242995043
-0.19975013191482313,-0.10592116733706552
-0.20170435309460696,-0.10521329146063373
-0.19781830838567865,-0.10662009111093271
-0.1938902170599835,-0.10805233013939802
-0.1920299212288482,-0.10872797915062345
-0.4764236294834062,0.11840446927883032
-0.17803288084203178,-0.11386526684144203
-0.17634333720348855,-0.11445714433121004
-0.1730105177448666,-0.1156973270979723
-0.17436645174752619,-0.11518165762464881
-0.184153974161678,-0.1116872820556721
-0.18216208411763826,-0.11241817716638713
-0.18805092987109612,-0.11024004109521801
-0.18627870506307184,-0.11090507630132414
-0.19584308586994986,-0.10734074691109956
-0.47321188619871923,0.1027771678570508
-0.14112386031647667,-0.1271584409282363
-0.1431710080272305,-0.12642564585465574
-0.13913318756235088,-0.1278766426316521
-0.1782796235482531,-0.11377887104032
-0.1724222217804378,-0.11591692315486163
-0.17057898864522064,-0.11663009371670052
-0.18024510862446186,-0.11310187372016464
-0.4792816636015721,0.08715650569318116
-0.14320651724330904,-0.12641313941453328
-0.14589904520301214,-0.12549340032216472
-0.14494621193625004,-0.1258144160297765
-0.16854746914594976,-0.11742503105445314
-0.1664914604240016,-0.1181693745904081
-0.16267894014332862,-0.11953257925338406
-0.1606793183818633,-0.12023426996584513
-0.11763590469782997,-0.13569084755942307
-0.11864093568667247,-0.13533255674660327
-0.13877306721618599,-0.12803037565112896
-0.1391436288167494,-0.12790526601820934
-0.13951216841053946,-0.12778711310489566
-0.13986187237332068,-0.1276956434075718
-0.4834208209835748,0.08269378925376583
-0.14701746299200752,-0.12511962905202248
-0.14882214187390957,-0.12452077559147715
-0.15095549702184183,-0.12378499914378835
-0.14909294860073768,-0.12443591605458226
-0.15876208142424947,-0.12092525861447986
-0.1568113596378206,-0.1216427276379297
-0.15488889277525375,-0.12235044612383919
-0.16472356096961133,-0.11879991214053498
-0.1157265236122532,-0.1363814935363267
-0.11460106569424036,-0.13680622265080558
-0.11964149773425455,-0.1349836477892374
-0.13984602931367368,-0.1277950866601407
-0.1399701332707174,-0.1277266025328441
-0.14005061478793013,-0.12769423194212107
-0.15290916638162677,-0.12307561052220767
-0.11573811247225492,-0.13641326293939288
-0.12132844007253418,-0.1343938359310419
-0.11643975830161164,-0.13617713184298114
-0.11766067073980795,-0.13575874055061526
-0.11896663076878498,-0.13531782064843906
-0.12555350806847976,-0.13299529819568212
-0.1260237671686958,-0.1328371787274431
-0.13920671425214165,-0.12807820680999332
-0.1295032700510718,-0.13169281899578883
-0.12763055588218747,-0.13230651324906714
-0.12169783699768034,-0.13426899600127987
-0.12331680737660293,-0.1337309609336107
-0.12348035914484053,-0.13367710301863323
-0.11968166107794098,-0.13509375054773362
-0.13731210411059688,-0.12883924561871385
-0.13684258677138467,-0.12903118003242195
-0.12993744315230799,-0.13155004195967462
-0.10695491313082486,-0.13979312534954536
-0.10612622281929518,-0.1400620830815867
-0.12094649843302197,-0.1346892674917397
-0.13537751874747192,-0.12960095061841606
-0.13346350310972346,-0.13032337431908048
-0.13147525128344545,-0.13103363007123925
-0.10405862718504363,-0.14078618770732185
-0.10800057053420956,-0.13946227470666572
-0.10201204685056534,-0.14153303966806852
-0.10026099321823148,-0.14221193364588436
-0.09912501589946753,-0.1426493193866821
-0.1097083325047633,-0.1389292275991116
-0.1216378432971421,-0.1345775743673612
-0.11978739237224648,-0.1353835996014659
-0.11780394233172961,-0.1361515016117487
-0.09822694934423251,-0.14299475873445572
-0.0962536285651076,-0.1437444461976111
-0.006377659060584143,-0.17621707823110283
-0.004500008070316497,-0.17689975453060097
-8.210299705775132E-4,-0.1782384940609969
-0.0014726466064022869,-0.17800097393711872
1.6401923684229703E-4,-0.17859799776552931
-0.0068794994491758596,-0.1760341412441952
-0.11395020564661468,-0.13757706871329106
-0.11589726701270056,-0.1368495651075367
-0.11201613085714773,-0.13823601578027567
-0.10998770422183768,-0.13884462433365047
-0.09044318280771987,-0.14580438206157215
-0.09161552267731524,-0.14538863628051987
-0.09432951763789493,-0.1444406948091509
-0.0923662158464158,-0.1451236773299771
-0.0764749837748169,-0.15091161003794423
-0.07474792645494265,-0.15149760916342184
0.011791877214667597,-0.174826649609151
0.012369336554366447,-0.17461831580258805
0.007917962171207457,-0.17622554912333852
0.009005682658754524,-0.17583164295106812
0.006039003832529753,-0.1769067158885337
-0.0025748791939958974,-0.17759967419834938
7.672369584198451E-4,-0.17881988529685017
-0.012221706315491411,-0.17408749598306664
-0.014279288551265666,-0.1733412681884296
-0.010249368985325491,-0.17480582376861142
-0.00831968638936598,-0.1755100546853222
0.10764702222224193,-0.14002501269482015
0.10949513750670203,-0.1393532951020169
0.10634079003408968,-0.14050393653188423
-0.09012361392264213,-0.14593285554204394
-0.07292483542727513,-0.15220663502251305
-0.07674436909997716,-0.15081936890235928
-0.014601860429778186,-0.17322539724131508
-0.01609620103825182,-0.17269262524305545
-0.016048633690420026,-0.1727095237703287
0.013766353299171554,-0.1741152372766405
0.01582475047365186,-0.1733714830465096
0.009860251456093762,-0.17552359320522273
0.004113020360271579,-0.1776062936343109
0.0029102487874137937,-0.1780452629318956
0.002171203311946371,-0.1783136549554591
0.016953912439045503,-0.17296570749260665
0.019605587787141963,-0.17202121601174605
0.017592842794307614,-0.17273637222951604
0.10559334922672861,-0.14078734275682417
0.1054274663103702,-0.14085411140938595
0.11127844581817212,-0.13871077566242446
-0.08861922032443782,-0.1466221250507554
-0.08851122971936348,-0.14668597262522304
-0.0876708486534055,-0.14717881659763052
-0.07883537422060438,-0.1501856435386583
-0.07891772236496997,-0.1501610425874949
-0.08065993365726565,-0.14970751347340888
-0.0810511127598037,-0.14959356734440438
-0.07283866921788731,-0.15224263881248887
-0.07222520968960365,-0.1526023408870691
-0.07277999154548205,-0.15226895118306155
-0.06511838601769263,-0.15533896324025975
-0.06327569397987803,-0.15600656878190794
-0.017275619656548943,-0.17228089783209705
0.0023579183203909244,-0.17824691493059922
0.019635753671256608,-0.17201076792075423
0.05813430722892205,-0.1580568501061338
0.05851434094005577,-0.1579112235205442
0.058812743190839706,-0.15779931905579328
0.10559863390980694,-0.14080189468324955
0.08803498179624956,-0.14723967558029663
0.08803166434060208,-0.14724092180878295
0.11145093135421061,-0.1386497631306491
0.11281171616995164,-0.1381724445460944
0.11345127185665986,-0.13796432720335816
0.11358910014661586,-0.13791786735152023
0.10627854369569899,-0.14057277168973228
-0.08668063943335827,-0.1477327670574885
-0.0848501798311892,-0.14844342632459026
-0.08277437307585629,-0.14915448404646892
-0.07096427055118548,-0.15316933807545396
-0.06905766386634586,-0.15388653605957786
-0.06707170569534321,-0.15462861600906147
-0.061960492916543625,-0.15655745370845436
-0.018037284721772705,-0.17203080954932992
0.02060239570393843,-0.17168695273929124
0.060024825126342385,-0.15737028893926697
0.06058540982082146,-0.1571782739602352
0.06222917697098443,-0.15661136250152422
0.05882156273511413,-0.15782360459145503
0.09974325842980523,-0.14294555054355965
0.09979318510794552,-0.1429279968719804
0.09775383918895088,-0.14365103310372784
0.09699514910663583,-0.14394413264333603
0.0880405979957318,-0.1472376774593386
0.08760162222616544,-0.14745950622859189
0.11345839631088331,-0.13798394513164025
0.11367843498203622,-0.13789587112382196
0.10952285499389705,-0.13942961809589766
0.10767540772982573,-0.14010317515257364
-0.06124847044165625,-0.15686033132763139
-0.01876067248889014,-0.17180856022868013
-0.018102352370253212,-0.17201347863844846
0.0210836293287128,-0.17155379454068304
0.06471686376914243,-0.1557516011652581
0.06571221572002967,-0.15540887105247433
0.059806761637006725,-0.15749108773479398
0.06134830886121624,-0.1569936690536679
0.06060494721019287,-0.15723207220100363
0.06264054921628272,-0.15647064299124688
0.10180248867256633,-0.14223191139350042
0.10242602835131588,-0.1420134593420952
0.10358067222577112,-0.14162755879476205
0.10533373533105733,-0.1410199055875363
0.09723307700845356,-0.14389933343948613
0.09689024622842193,-0.14399387910778236
0.08999686908172538,-0.14655292252637597
0.08806211822307056,-0.14731439856379624
0.0824451899053908,-0.1493321180646458
0.08210010580030257,-0.1494499101536399
0.11147665806792527,-0.1387206043219737
0.23858941644648507,-0.09295291159190429
0.24056562946168525,-0.09230560592995955
0.23671453413099347,-0.09360682731379433
0.3620548229604234,-0.022820347153775428
0.3602526064235152,-0.024654594215965872
0.35825366683772464,-0.02672387910989385
0.3539632043144736,-0.030627061055335705
0.3563435330766524,-0.02860016720796276
0.3520693725227765,-0.03257883185915033
0.35243469662295696,-0.032214569355105784
0.3641619074281094,-0.02039076124939807
0.36542214813534646,-0.018916504869665656
-0.05927933875096977,-0.15780390001174513
-0.019371653212418214,-0.17164812903343776
0.02138168804093147,-0.1715079615997108
0.06657410764229615,-0.15512407774941925
0.06830916813099117,-0.1545593761246765
0.0621037166675751,-0.15681295013389562
0.1056410885985916,-0.14091879809982108
0.09778959115006718,-0.1437494798601085
0.09785737791656682,-0.1437350222639452
0.09165019650456559,-0.1459892245219329
0.09200218729661563,-0.14587264781930773
0.09321660278948582,-0.14551398309988003
0.08958224507480833,-0.146833837768687
0.08530084397510218,-0.1483886729484067
