"Plane Section: Position[X] (m)","Plane Section: Position[Y] (m)"
3.5,4.2220422687331215E-4
3.2699999999999996,4.236500658261822E-4
3.04,4.3759067449460824E-4
2.8099999999999996,4.608323234841285E-4
2.58,5.020703345634403E-4
2.35,5.545049125836392E-4
2.12,6.261996151795283E-4
1.8900000000000001,7.460578800905297E-4
1.6600000000000006,8.951545693024027E-4
1.4300000000000004,0.0011429985745637053
1.2000000000000006,0.001407308424072729
1.1760000000000002,0.0015382745075349083
1.1520000000000001,0.001581951421770049
1.1280000000000001,0.0016186812511838158
1.104,0.0016913387417581338
1.08,0.001771641089287842
1.056,0.001853822551531899
1.032,0.0019383976035517753
1.008,0.002020373845425245
0.984,0.0021104036158893598
0.9600000000000001,0.0022029202044477722
0.9359999999999998,0.002300899414938701
0.9120000000000001,0.002410766387936003
0.8879999999999999,0.002528491712534198
0.8640000000000001,0.0026618103347622888
0.84,0.0028074871880740195
0.8160000000000001,0.002975805084380876
0.7920000000000003,0.00316788145564054
0.7680000000000006,0.003385827715085815
0.7440000000000004,0.0036321594613514772
0.7200000000000003,0.003935776673073247
0.7151478627521209,0.0040000000000002586
0.6960000000000004,0.004251404349339804
0.6720000000000003,0.00461846394565241
0.6480000000000004,0.004991466322679567
0.6240000000000001,0.005508158564126451
0.6000000000000002,0.006086885327189495
0.5760000000000001,0.0069858241999673065
0.552,0.007991785455586235
0.528,0.010036280493137945
0.5182351768957565,0.011999999999999858
0.5040000000000002,0.014732880610146406
0.4800000000000003,0.017575743112673244
0.45600000000000007,0.015137306525952143
-0.4800000000000001,0.017411023518278147
-0.45600000000000007,0.01503844741327828
-0.5184383265734471,0.01199999999999837
-0.5280000000000004,0.010179924933705602
-0.5040000000000002,0.014730180318922932
-0.552,0.00814722929425687
-0.5760000000000002,0.006942813809166192
-0.6000000000000002,0.006103894688337359
-0.6240000000000001,0.005500532992067606
-0.648,0.005030226189704307
-0.672,0.004623808967657908
-0.7152378303788696,0.003999999999999231
-0.7200000000000002,0.0039337333514713165
-0.6960000000000002,0.004265568627291199
-0.7440000000000002,0.003646451839172341
-0.768,0.0033923209440767646
-0.792,0.003171446288194623
-0.8160000000000001,0.002977553765995392
-0.84,0.0028155872838439024
-0.864,0.0026643629883052002
-0.888,0.0025324038659162926
-0.9119999999999999,0.0024129162341982144
-0.9359999999999999,0.0023005566124393697
-0.96,0.002196461067589083
-0.984,0.002107337133729354
-1.008,0.0020167215391294797
-1.032,0.0019359941199435684
-1.056,0.001858118374241977
-1.08,0.0017839878485481548
-1.104,0.00171764261158251
-1.1280000000000001,0.0016482927414121378
-1.1520000000000001,0.001593332758856506
-1.1760000000000002,0.0015331143296747184
-1.2000000000000002,0.001395865169293186
-1.43,0.0011481244657836525
-1.6599999999999997,8.965322912652618E-4
-1.8900000000000001,7.475399779319523E-4
-2.12,6.48469635320209E-4
-2.3499999999999996,5.500869097459708E-4
-2.58,4.972274673251886E-4
-2.81,4.708445360723856E-4
-3.0400000000000005,4.36629707635048E-4
-3.2699999999999996,4.196856218572466E-4
-3.5,4.205986311095084E-4
-0.30093658090395403,0.007331053017756091
-0.29925265374432936,0.006718694413040559
-0.3549638523977837,0.036377696139844255
-0.35661813346532933,0.03694108551715493
-0.34986801039595117,0.034419722969260935
-0.3507607998711111,0.034792215535257985
-0.34541962419947,0.032462365674128926
-0.34685613171211793,0.033127404406611605
-0.3414448505085043,0.030505458890585202
-0.3429516396307576,0.03127748689741086
-0.3378243597917417,0.028548889109465972
-0.3390473271579089,0.029238751060551446
-0.3344620249878929,0.026592564892444066
-0.33514319303716567,0.027012517745895047
-0.29366618576029113,0.004665226062142003
-0.2954472921657362,0.00531952783754561
-0.2915631782852302,0.003887601865729498
-0.28956083574939134,0.0031466433932284673
-0.2869875955205671,0.002194199281787563
-0.2876650761065757,0.0024447648092386495
-0.30263704883676024,0.008008718962573658
-0.2973474095737826,0.006019130995111484
-0.3331911926640014,0.025829294334614034
-0.33129308581174205,0.024636424637980714
-0.3611498116966638,0.03833670625611578
-0.36247583994772836,0.038697946674223334
-0.358570667599612,0.037563178054938556
-0.3546656414802403,0.036274682494303136
-0.3527132071859793,0.035547630426351215
-0.3488084470687949,0.03397949284599168
-0.34490386395980993,0.03222527058753372
-0.34099946272789905,0.030279845128334336
-0.3370952418143086,0.028144855139083512
-0.2857156755524528,0.0017236921516529976
-0.2837780955405876,0.001007108734082297
-0.28181664661766814,2.8214772266283003E-4
-0.2798669821202743,-4.382139694722539E-4
-0.30304188607420407,0.008146901663215874
-0.33123923297937585,0.024603295992335742
-0.3292873031694441,0.02334589108572499
-0.32830682924395616,0.022680458155578263
-0.3254019558054181,0.02072456908677634
-0.3273354151236888,0.0220445804484467
-0.3225974381652309,0.01876877547880477
-0.32343170510316965,0.019372500254425058
-0.3696458987837498,0.040297913821299554
-0.3702867135459537,0.04041146135506415
-0.3663812064895558,0.03962856389357737
-0.36442850690378115,0.039180406729046435
-0.3605232255548169,0.038160228205007016
-0.2779987574667264,-0.001128673661512558
-0.30373423536442695,0.008387141376264527
-0.3197967862551722,0.016812985548013408
-0.3214798766772741,0.01800851261742315
-0.3253835563870041,0.020712457849749864
-0.3722395795412595,0.04068467598721075
-0.3683339346299124,0.04004670228591415
-0.2759675932469758,-0.0018787733245451007
-0.27222891008672423,-0.003262148135911076
-0.27401854040484985,-0.0026008105648316878
-0.27012201854595375,-0.004049223724119588
-0.26923153515578213,-0.004381284346554097
-0.3045048850311602,0.008656547906661708
-0.3049753120807239,0.008832076613697091
-0.30479452518578076,0.008769777486872365
-0.31952805726816674,0.01663504584299431
-0.3175762084326621,0.015292514362757673
-0.3169856603726353,0.01485718565410879
-0.3140779876071562,0.012901293922528832
-0.3156243428059994,0.013967635046358614
-0.37419250619005456,0.04089412700290445
-0.2603826672228906,-0.007675607493890515
-0.25843441457458993,-0.008399836758615145
-0.25657056220217717,-0.00909320783291525
-0.26812358557753574,-0.004794085860860884
-0.264278669220167,-0.006225770242895192
-0.2623452647538825,-0.006945467961924001
-0.3050447465787817,0.00885722468986052
-0.30586341397020633,0.009026020367449403
-0.30583667904281664,0.008987202825164794
-0.31367245690475387,0.012664069932728693
-0.3117204238003893,0.011515256089211017
-0.38200553756393074,0.04033922147072486
-0.38005191556880424,0.0408607721709616
-0.37809862412330636,0.041034823598659564
-0.3761455101082246,0.04102234647735438
-0.2545404215185799,-0.009855177236768722
-0.2525963139019292,-0.010590761263850121
-0.2521332060879906,-0.010763500624338007
-0.26622667018620194,-0.005500851528069978
-0.31079667334520444,0.010945046774185747
-0.307815853569985,0.009747494872191752
-0.38207282108669705,0.04030973460749066
-0.25081284075876525,-0.011258145697192553
-0.30976825189801305,0.010512357421129277
-0.3826972682084818,0.03835720271293848
-0.38167760693749697,0.03640310690310093
-0.3820085945745044,0.037125456134735356
-0.24870749388820212,-0.012060272602429326
-0.24671399712601372,-0.012810701267661886
-0.23898945807848349,-0.01574504738290349
-0.23714882409881416,-0.016444279135840855
-0.38015556350397894,0.034448533215323915
-0.23704659116001256,-0.016484030137428198
-0.23519771663245573,-0.01720932195962112
-0.2448181167677112,-0.01352825782128653
-0.24287446011774314,-0.014265077211506634
-0.2409480817386975,-0.01499567637108987
-0.38005811210673457,0.034346493495201504
-0.37848659947805136,0.03249381977315161
-0.23317508919472218,-0.018000981963929567
-0.23123677180044827,-0.018752427534243978
-0.22946290602670874,-0.019435194812044157
-0.22736489696227652,-0.02026835792518325
-0.22537738378171393,-0.021027210620521666
-0.37810715616838425,0.03206527964637715
-0.3768767090030123,0.03053916252315563
-0.22353754712849772,-0.02172918970636956
-0.3754485117403439,0.028584678104112412
-0.37615638761829173,0.029587068798081644
-0.21572209161590747,-0.024741690828150475
-0.21386501420807527,-0.02543535824543519
-0.22348107437086598,-0.021751559036917518
-0.22155262324588088,-0.022530031938310543
-0.21963322877293517,-0.02327139582917264
-0.21766898623407843,-0.024013741420667294
-0.374295653110573,0.02663045559374795
-0.37346209295154437,0.02467653680774957
-0.37420626904680865,0.02642555031039147
-0.17653159623612757,-0.03852998887048027
-0.17846022769137487,-0.03783072773666827
-0.17259687690511735,-0.039952482917581744
-0.17454869357108216,-0.039238016804684396
-0.17074389031598167,-0.04063890898630763
-0.18110194305145816,-0.036904072228842885
-0.18041823724171835,-0.03713322620598746
-0.18435254610050084,-0.03578832550169701
-0.18234352479699162,-0.036472289206130194
-0.19027760392218215,-0.03383560852827395
-0.18828770572161507,-0.03444575534752048
-0.18649258914678224,-0.03504806976364187
-0.19093371759321787,-0.033631147386548016
-0.20987272014461028,-0.02690174048110076
-0.20808610028347813,-0.027538513470145746
-0.20595923786166406,-0.02830369281690824
-0.2039601368935962,-0.02902282321668112
-0.21182542784108438,-0.02618971522764314
-0.37302608222589545,0.022722996180286472
-0.16869569477967442,-0.04138812989715607
-0.16663939206783518,-0.042131671914870564
-0.16283270814564046,-0.04351088262459305
-0.16085048793717513,-0.04426026066947642
-0.20204687157029239,-0.029708702263057805
-0.2000900140843635,-0.03040935972083148
-0.1981579488569116,-0.031107625288745406
-0.19422108660109577,-0.03251583828277452
-0.1923490687825909,-0.03315937853794561
-0.373020001248901,0.02076986451231596
-0.15111221042019538,-0.0477713875994528
-0.14927002235237474,-0.048478097569242665
-0.15893294935190888,-0.04495042863188723
-0.1569729680798866,-0.04564252889356328
-0.1550423550446822,-0.04632792802835603
-0.16486849641478463,-0.04275401120919525
-0.1961793652945739,-0.031819074033879034
-0.3734788542560192,0.01881717510067236
-0.14518153537290934,-0.05001625185337478
-0.14722724508636853,-0.04925145832046856
-0.14137348216539075,-0.051399478181736666
-0.14232273570104198,-0.05106033826670795
-0.15305925029751208,-0.04704383611007149
-0.1393772935370871,-0.052102575196458306
-0.3742148948548668,0.0173574354781426
-0.1451271714439833,-0.05003658504492699
-0.14342214994563776,-0.05067083793464719
-0.12669600321711433,-0.056764843269762943
-0.12574365717929298,-0.05707331762277759
-0.13745046281564416,-0.05277530499287606
-0.13549866204012467,-0.05348981463552192
-0.13402350302692553,-0.05408995526179419
-0.129699881071642,-0.055788450235033024
-0.1278276357127894,-0.056403473765719914
-0.3744497273911318,0.01686497273485323
-0.123678597199113,-0.057777329315327156
-0.1336052972391783,-0.05426879306187126
-0.13165099170565023,-0.05507205004160373
-0.3760849863944594,0.014913402348788077
-0.12192549529712461,-0.058449852996615315
-0.12096360205337064,-0.05885744395591912
-0.11992185739748687,-0.05930889624800366
-0.1179449883658132,-0.060094797547595
-0.10820304277592892,-0.06357401186186765
-0.10637497195299069,-0.0643006440145778
-0.004944103167032851,-0.10060249621370246
-0.004598528601167511,-0.1007275450233058
-0.3789308046450506,0.01296298347567073
-0.3781248329521545,0.013482080948791967
-0.3761704059596672,0.014849906961656199
-0.11603374357497787,-0.0607803421034723
-0.11407290447744176,-0.06147009246639065
-0.11214502065540186,-0.06214602912476294
-0.11014661513377266,-0.06283696156456427
-0.09847221948461353,-0.06722375703911267
-0.09647745071365775,-0.06791467145865437
-0.10431511095417281,-0.06504595628418026
-0.10227326076805565,-0.06580576583993611
-0.10051806615740863,-0.06647329036722885
-0.0026728183335778238,-0.10142670256352457
-0.006478740323353702,-0.10005165981521458
-9.182941989112279E-4,-0.1020657262376485
6.711245051311511E-4,-0.10264615784957204
-0.006991871591909594,-0.0998672981823235
0.2969834545452587,0.0047868524696992945
0.29520058185917253,0.004136501343993681
-0.3820328025388764,0.011676176572490163
-0.3800789308557045,0.012460218604869214
-0.09453428622371965,-0.06855872917637117
-0.09258532002638503,-0.06928100376858108
0.0040190749227949135,-0.1014340698912233
0.005148334394935161,-0.10102756891511905
0.005947955645167243,-0.1007422455004604
0.006772773852903904,-0.10045039748400487
0.002262485349694667,-0.10207083142406893
-0.008424774791699691,-0.09935539050360603
-0.008892851251392744,-0.09919185278222756
0.27644413688718195,-0.0027386814944595733
0.27748449094869554,-0.00235962590004975
0.29309370188197303,0.0033694091497782656
0.291087474925793,0.0026392569273064655
0.2795190294196151,-0.0016187677414158288
0.2813904324134905,-9.370114505939693E-4
0.298887977396879,0.005481431626530588
-0.3838272448091038,0.011014515203248662
-0.09070953033206,-0.07009113894729448
-0.08288930638705154,-0.07302610535265736
-0.08456532267117418,-0.07246070062964553
-0.08085356190178705,-0.07379485031669497
-0.07704682730961374,-0.07520503580091509
-0.07505088992315191,-0.07588469265070245
-0.06946010641666087,-0.07765868399998348
-0.06917262558081988,-0.07775841183941405
-0.06896581918697557,-0.07783912248752944
-0.06524745509313021,-0.07924947460935507
-0.06340844427931225,-0.07992716748827826
0.007991888957418411,-0.10002647901310585
0.007834397990560389,-0.10008165572764248
-0.009918351203857662,-0.09884525092452764
0.2755393084661607,-0.0030923946619820317
0.273760128342313,-0.0037825813298266796
0.30079342108925056,0.006176351972271019
0.28971307086519915,0.0021389315026832303
0.28724688678912447,0.001203680216370389
0.2891905283313578,0.0019406677092468827
0.2853077113759474,4.914352768790132E-4
0.2833432452157466,-2.2526902879416817E-4
-0.38594022063406214,0.010450042635255239
-0.38398659998415585,0.010970179138248048
-0.0888007878206024,-0.07091455320824556
-0.08876230253776245,-0.07093077236345115
-0.08682508203538697,-0.07168522272306196
-0.08496830637201842,-0.07232376505024025
-0.07927678167898793,-0.07439127111710692
-0.07737549812894358,-0.0750853305780047
-0.07309233098459383,-0.07649463562930944
-0.0710993112159948,-0.0770962313285552
-0.06719208400215669,-0.07851531859335265
-0.061341416528578635,-0.0806718180206255
0.012135586587274679,-0.09859209730636018
0.011727297698848884,-0.09873426370839034
0.009477801733543397,-0.09951498659401721
-0.010750885670157782,-0.09858296804652762
-0.010372429075526792,-0.09870031768700077
0.27165006291261373,-0.004561016870181558
0.26964708757381045,-0.005293453582550253
0.26774563826079606,-0.005987811095391687
0.26725313279776164,-0.006167643182642221
0.26446874438672896,-0.007318490133053197
0.26581977519252953,-0.006773817020530399
0.2619380959866829,-0.00826328928570335
0.2599970825048847,-0.009007546272368067
0.2581543231695087,-0.009759120485425783
0.30248693903833956,0.006783311782004063
-0.3878937928041532,0.009980871854535823
-0.07909705232693615,-0.07445951520534967
-0.05812572315312283,-0.08179627617416352
-0.057513522908091974,-0.0820005511585083
-0.059297051205632306,-0.08140914877594764
-0.05544056695949423,-0.0826908502787555
-0.053470809413857234,-0.08343415309668234
-0.052591310587129514,-0.08381660154955786
0.009789454574576811,-0.09941444964111473
0.013008237081034418,-0.0983378230528697
-0.011512751678898226,-0.09836729855345246
0.26389948147683606,-0.007529726950231538
0.25715701504923255,-0.010182484518875917
0.3041519260828827,0.007449143258791157
-0.38984732898664076,0.009549534029952057
-0.051582832951550216,-0.08424551759130394
-0.049659935510152825,-0.08503920406943105
-0.04777221770187927,-0.08579957339670738
-0.043858064386936395,-0.08732079750415432
-0.0457923959311015,-0.08656701032549115
-0.039941090040856726,-0.08872176089529392
-0.04134299336721875,-0.08823891875756515
-0.04202701448901848,-0.08801930215539867
-0.04385533812574548,-0.08732190637194602
-0.03918357892316926,-0.08902720834481313
0.014968921156081932,-0.09771991104110653
0.013731103093507738,-0.09810357548264109
-0.01212424693227515,-0.09823774560594194
0.01762641563875013,-0.09689593476320385
0.017620348324192448,-0.09689759896381099
0.18631036020042646,-0.036208190302062085
0.18589787259316384,-0.036350475129775295
0.18522106308323366,-0.036603489004271635
0.25613963768147474,-0.010563799535857621
0.2541937774900563,-0.0112947007827203
0.2524120388641119,-0.011966960562886597
0.24832199515612913,-0.01354408357063123
0.2503087406956166,-0.012774920775001523
0.24644948908585307,-0.01432619520328675
0.2458832798608672,-0.014589572702984801
0.23869310635384816,-0.017324362127775647
0.2406343589145557,-0.01658076395417931
0.236840881112552,-0.018040695002683568
0.3043429452651234,0.007502874160831955
-0.3922638128372078,0.009069414385247835
-0.39180083448903513,0.009150449477121942
-0.03420744578791923,-0.09119882985436739
-0.032936201883305975,-0.09178201475056369
-0.03792830113280739,-0.08953778407726663
0.01582544630517955,-0.09745883710178803
-0.012426710472615145,-0.09820642937733715
-0.012706993706078296,-0.09816552326818051
0.018883821692127226,-0.09665024672972077
0.06793403475354845,-0.07885024959210882
0.06661270832313942,-0.07931598767346427
0.06476038666261136,-0.07995704452696742
0.06064639822071058,-0.08143179824650998
0.06267998868110727,-0.08066481136655398
0.08627438288260589,-0.07222853008249171
0.08811821964299238,-0.07155452823409864
0.08323288623797581,-0.07329839781395447
0.0821396883271443,-0.07364450110235832
0.0763410516208747,-0.07574534703526367
0.07830630415115633,-0.07498137935376788
0.1213603230907956,-0.059576942381516215
0.12340193865559204,-0.05882187141287369
0.11935834558262426,-0.06029400187454335
0.14087529198752688,-0.052534015885395365
0.14286179832314824,-0.051804360977185104
0.15078634268810664,-0.048959901775464804
0.15264550827592593,-0.04829978581969004
0.14667098956959113,-0.05042428529382216
0.1487274705055265,-0.049689067322984795
0.14490409230757373,-0.0510582460686432
0.1898154619511315,-0.03495995796756949
0.1917787359134658,-0.03427704263537565
0.18803246159390802,-0.03559539264175087
0.19383852026031587,-0.03356903277804888
0.1957209532763619,-0.03295439114960095
0.18390798848097376,-0.037086926184749715
0.17813138405066614,-0.039241663869332546
0.1800523023262509,-0.03852116223114063
0.23287730436334192,-0.01957707959332495
0.23481148325083623,-0.01881398899154408
0.23111186422486743,-0.020283259406672936
0.2290099051140461,-0.021105902139310993
0.2270237052560491,-0.021868559683220858
0.2055521733306706,-0.029699350520194463
0.20554684409557872,-0.029700947459642052
0.203615493479648,-0.030336935137972487
0.20165185196656163,-0.031018837636194185
0.19969608298470487,-0.03165175848621332
0.2445218498479242,-0.015107306661445656
0.24259553266863193,-0.01583822882627855
0.3045730466630158,0.007559974047847657
-0.4015668912603131,0.008701182787970066
-0.3996137930973883,0.008672040655814985
-0.3976606405782194,0.008700042012875806
-0.39570744819362,0.0087699529865841
-0.3937541940687445,0.008904770103705755
-0.40937877823505886,0.00934935789003493
-0.4074258590896227,0.009132018772328932
-0.40697230797381706,0.009083405458178808
-0.03621491370830429,-0.09032208905931131
-0.03229119537863582,-0.09208062388646936
-0.013484731538924133,-0.09809237392129674
0.019794033645360157,-0.0965323702208788
0.07441542472776345,-0.07644549922074619
0.0724625475445289,-0.07715706423237853
0.07056085731944513,-0.07788791807103308
0.06912575388780179,-0.07841778261893861
0.06857319342845417,-0.0786253872824013
0.058926075024542196,-0.0821191784584383
0.05687725006620431,-0.08295352666564873
0.05890151496287685,-0.08212938943083123
0.055375024870983336,-0.08372375544185882
0.10367906671402438,-0.06598419795134788
0.10572333348016666,-0.0652309604092065
0.09207190807684407,-0.07015030000113459
0.09397965676972586,-0.06942756433227742
0.09007730478956799,-0.07086007007431488
0.08420594746939931,-0.07295969759058613
