"Plane Section: Position[X] (m)","Plane Section: Position[Y] (m)"
3.5,5.249212038277933E-4
3.2700000000000005,5.27327510865455E-4
3.04,5.457738472193943E-4
2.8100000000000005,5.757106315376649E-4
2.58,6.25748575315873E-4
2.3499999999999996,6.936701294892365E-4
2.1200000000000006,7.877035951631527E-4
1.8900000000000003,9.379857797515859E-4
1.6600000000000004,0.001132306560933558
1.4300000000000002,0.0014503972646613093
1.2000000000000004,0.0017930474458205375
1.1760000000000002,0.001965951112260802
1.1520000000000001,0.0020236722418768786
1.1279999999999997,0.002075392851847135
1.104,0.0021635854231234946
1.08,0.00225975471651436
1.056,0.0023610386376934412
1.032,0.0024660354223533312
1.008,0.002570065100412818
0.984,0.002686433212586546
0.96,0.002807548049558087
0.9359999999999998,0.00294175923403991
0.912,0.0030984057389452785
0.8879999999999999,0.0032691810134098157
0.864,0.003468815948033849
0.8399999999999999,0.00369314184222956
0.8159999999999998,0.003950495683825982
0.8118862598761138,0.0040000000000003175
0.7920000000000003,0.004237395587221004
0.7680000000000006,0.004541175500320897
0.7440000000000004,0.0048745395797031845
0.7200000000000003,0.005262875831040384
0.6960000000000004,0.00564001771198018
0.6720000000000004,0.006109520108943138
0.6480000000000001,0.0066092139412311495
0.6240000000000001,0.007293785497853618
0.6000000000000001,0.008076754896094133
0.5760000000000001,0.009273190440284785
0.552,0.010698695417040853
0.5409747415433701,0.011999999999999901
0.528,0.013644989500885352
0.5040000000000002,0.018373016459887336
0.4922670718248079,0.019999999999999032
0.4721206164954903,0.01999999999999902
0.4560000000000002,0.016568330043616068
0.48000000000000054,0.02154299578004403
-0.4729843319418816,0.019999999999997554
-0.45599999999999996,0.016971480585827335
-0.4901905437205668,0.019999999999997676
-0.504,0.018267754482726335
-0.48,0.021164190455972683
-0.5424849097822282,0.011999999999998436
-0.5520000000000002,0.010868603032261904
-0.5280000000000002,0.01385506209054136
-0.5760000000000003,0.00923087458402894
-0.6000000000000002,0.00809185176593287
-0.6240000000000002,0.007288428255311117
-0.6480000000000001,0.006645382902839231
-0.6720000000000002,0.006111191325246896
-0.6960000000000002,0.0056600734335627515
-0.7200000000000002,0.005249321019104566
-0.7440000000000002,0.004880037826139379
-0.768,0.004544621848971153
-0.811685139022174,0.0039999999999994085
-0.8160000000000001,0.003947459784202106
-0.792,0.0042378867996309775
-0.8400000000000001,0.00370170547642605
-0.8640000000000001,0.0034737537877329193
-0.8879999999999999,0.0032754513907667353
-0.9119999999999999,0.003104280435004576
-0.9360000000000002,0.002946486655024258
-0.96,0.0028047356801867524
-0.984,0.0026834456679767204
-1.008,0.0025664556219158483
-1.032,0.002465761972652242
-1.056,0.0023664260586075247
-1.08,0.0022722597450829875
-1.104,0.002188440923077274
-1.1280000000000001,0.002102275139390786
-1.1520000000000001,0.002032722658157634
-1.1760000000000002,0.0019574432190712717
-1.2000000000000002,0.00177913628906332
-1.4300000000000002,0.0014553505595422212
-1.66,0.0011336078810272286
-1.8900000000000001,9.39009757799809E-4
-2.12,8.089305559885102E-4
-2.3499999999999996,6.896128885916655E-4
-2.58,6.218983390544738E-4
-2.8100000000000005,5.848282173039987E-4
-3.0400000000000005,5.442756419076117E-4
-3.2700000000000005,5.238696017017921E-4
-3.5,5.237473073054258E-4
-0.3566080823669006,0.039820373337588255
-0.3560176545828394,0.03940044368701898
-0.3585604306661139,0.04066306320361947
-0.35968206023751004,0.04135695058814067
-0.3624654926391913,0.04195244964889866
-0.35465652492984695,0.03812054652813255
-0.35374538453766224,0.03744522128003907
-0.35043926913214346,0.03548904496575486
-0.35075252830038567,0.03567653995882732
-0.3679322006954975,0.04527081448136019
-0.3702746401728916,0.04558945901986793
-0.3663695330628487,0.04434899204355907
-0.35270453630804904,0.03688803803894562
-0.3488006580363422,0.034315755253975025
-0.34776680686321987,0.03353345330986088
-0.34538583897557007,0.031578130609664586
-0.34684890609549235,0.03282673178892687
-0.37907570686318076,0.049187348022049306
-0.3819899949365787,0.04927462466120704
-0.38681056067054526,0.05114761063978371
-0.3878473550893863,0.05146102050326043
-0.3858947945067124,0.05084840359279006
-0.3741795744615139,0.04701722998312936
-0.3780842488759344,0.048726652772050696
-0.3448972875073752,0.031193180548592457
-0.34300472943747856,0.02962280777878183
-0.34294565530889776,0.029574380224831893
-0.34099408008117504,0.027893834960029923
-0.34074773047999785,0.027667599462110996
-0.33854815011639894,0.02571244412437424
-0.33904254702408165,0.026167585138563862
-0.3898002786978054,0.05168018988056054
-0.3370910570411621,0.02439465150201992
-0.33641658330618174,0.023757351541288517
-0.3343345801127079,0.021802304689516064
-0.33513960797161424,0.02257737593322737
-0.3322942007163022,0.019847296243141535
-0.333188192248737,0.0207239591985078
-0.40151907572619616,0.05163462671747236
-0.3995655636232756,0.05205326807270883
-0.39761239055698405,0.052104461310213394
-0.3956590618155412,0.05232437538192414
-0.3937061820198092,0.05205772180119018
-0.3917530641559186,0.05204908664398427
-0.30093357915955066,-0.0013602365542777692
-0.29924980555765085,-0.0019712889396916937
-0.33123680372234965,0.01884106689000114
-0.3302816962046761,0.017892313516337195
-0.4026604281363389,0.05116223497797061
-0.29366694967611584,-0.004032877115411391
-0.2954464799593803,-0.0033743191793233736
-0.2915655087807374,-0.004814806155962554
-0.2895644715217087,-0.0055593450490424995
-0.30262987420009285,-6.815805625586557E-4
-0.2973456813202666,-0.0026725802849533725
-0.3292854315334267,0.016940468045567023
-0.32828291210635385,0.01593734344906354
-0.32628205955402134,0.013982371473267734
-0.32733406345385613,0.015035415475405219
-0.4032395339441456,0.04920964347530435
-0.2894545131521834,-0.0056002443227847745
-0.2876689876105084,-0.006261980556357489
-0.2857196925910531,-0.006983343161243084
-0.28378217717894866,-0.0077001042900917485
-0.2818206880337947,-0.008424955809758657
-0.2798713082232327,-0.009146098110879287
-0.30301548342234874,-5.591534492833869E-4
-0.32538264176315385,0.013188466679615178
-0.324160046186095,0.012027287704954426
-0.32174843862033886,0.01007193673418267
-0.32343109528027103,0.011476767748246203
-0.4021145311400687,0.04725547962758405
-0.4004362918401221,0.04530080532023151
-0.40152367891334273,0.04664568942293004
-0.2780044547771768,-0.009840315040756682
-0.30342928373883776,-4.3704875102722147E-4
-0.3214794155216809,0.009909513101604915
-0.3195275198530662,0.008576261889956065
-0.3189640015432884,0.008116241761493743
-0.3995725624769128,0.04446790583780786
-0.3985730585386958,0.043345960322824825
-0.2759755335476193,-0.010596560298567436
-0.27420848287946586,-0.011258952718066045
-0.3040973350210089,-2.181340884263142E-4
-0.3049930543886463,1.3530075382206448E-4
-0.3048920600210657,9.155206561383891E-5
-0.317575539300014,0.007335008482614371
-0.3158103054172686,0.006160206081255171
-0.3156235938985743,0.006055657740549865
-0.31367147163910486,0.004967985844664882
-0.3124412842614766,0.004203971725178601
-0.39762133600463356,0.04240937918861867
-0.39670762458366104,0.04139111329491908
-0.26040058060283866,-0.016420725245420847
-0.25915204684124865,-0.016895291828771544
-0.274029128834221,-0.011325853204484313
-0.27224099963396164,-0.011991303883276688
-0.27013496005979765,-0.01278071493451884
-0.2681364454411735,-0.013525354583587536
-0.2623592580168476,-0.015679845049581934
-0.26429133197732424,-0.014956501173603868
-0.3050528559615583,1.5656447495283437E-4
-0.3058630608395947,5.325034549402858E-4
-0.3057019145917965,2.915017882708817E-4
-0.3117194297765261,0.0037931797393653908
-0.395670169849135,0.04028548117732558
-0.3949491422866488,0.039436364949039286
-0.25845743329541404,-0.017158942172092507
-0.25659803558228533,-0.017864518290920176
-0.2662394688654147,-0.014231953750102423
-0.30976730318182305,0.0027102063684762284
-0.30900174905216704,0.002247672307260793
-0.30781523496343605,0.0015639647125227185
-0.39371921022609746,0.037937743149105294
-0.3933721821034414,0.037481784089794745
-0.2545680588610198,-0.018626938522263
-0.25262116786925315,-0.019354899215327005
-0.2508372165961873,-0.020020975038796796
-0.392020800719212,0.03552741136734253
-0.24674558148649123,-0.02159328355490337
-0.24873488442998623,-0.020831363685366814
-0.39176871077569503,0.03509126970874448
-0.39092696270469857,0.03357327627471933
-0.23710399523640557,-0.025337359660733416
-0.23525637577091973,-0.02606609380394482
-0.2448544476773342,-0.022323845794393303
-0.2447860486757058,-0.0223498637424901
-0.23903911675230818,-0.02457715519834864
-0.3901434462374824,0.03161942750924024
-0.38967972962591013,0.029665873816349463
-0.3898200429255497,0.030259706692012535
-0.23128363442317346,-0.02757688913450248
-0.23322833333299992,-0.026842922992693165
-0.2301764694291518,-0.027998726512987605
-0.24291504677510695,-0.023072326408802225
-0.24099373049640632,-0.023816795890724975
-0.3895533027546234,0.02771263133358057
-0.2295083652518426,-0.028255814407375263
-0.22740453223618748,-0.029073027432504988
-0.22541242636603737,-0.029819300559077645
-0.38975899100698186,0.025759695286422624
-0.18230029490289473,-0.04504992249208019
-0.18429658448412015,-0.044331082701351956
-0.18820255695972363,-0.04290855850463704
-0.19015782154158636,-0.042203538179608466
-0.1864242074632287,-0.043556804028374245
-0.1922123787992917,-0.04148099420811112
-0.19408819688676604,-0.04084786831926065
-0.21570646985675157,-0.03339499510148712
-0.2138420351879059,-0.03406850772935157
-0.22350895447196278,-0.030524029080540038
-0.22155973633736026,-0.031245614310680885
-0.21963093965733446,-0.031961223009238635
-0.21765979860003512,-0.03268467133444607
-0.38982440581927114,0.025531199570561547
-0.17843141424198827,-0.0464478518325028
-0.17650957489507765,-0.04716572032018192
-0.17453316922245066,-0.04789154624219695
-0.17257387729121088,-0.04858553320212376
-0.1707113573211411,-0.049245842312833084
-0.1803846446554232,-0.0457372586800839
-0.20004812820483808,-0.038990707543747755
-0.20016793625535356,-0.038952306117404537
-0.19806513936536513,-0.039549461746702305
-0.19425615237430394,-0.04079405887639923
-0.20984454716947598,-0.03552066126517305
-0.20806277980047855,-0.03617072698406759
-0.20593764015321325,-0.036940625185266085
-0.20393824872470595,-0.037658959007506584
-0.21179713468889066,-0.034808306834084285
-0.3902761953113852,0.02380704666853689
-0.1686609150021404,-0.049988908038550904
-0.16661523538813222,-0.05076155264415409
-0.16282281915698152,-0.0521798504482155
-0.16083067506928417,-0.052902042956032555
-0.20202038072248216,-0.03833222753106516
-0.19605653561135356,-0.04017866604146128
-0.39121386380781165,0.0218547860041017
-0.1492339807633472,-0.057075418760092256
-0.15108159630978127,-0.05638357528429408
-0.15890865949897875,-0.053579944961206875
-0.15694942503214462,-0.05427408935115591
-0.15501624478617906,-0.054952453818548457
-0.16486072648522807,-0.05142878335270716
-0.3928069925036385,0.019903130118954403
-0.3917815828097154,0.021140550667381956
-0.14517445611916824,-0.0586929221126384
-0.14719573457366872,-0.05786119505643951
-0.1424619354226592,-0.059699750638844445
-0.14136213002927478,-0.06006444187691205
-0.15302688895147523,-0.05565123573601322
-0.1393404647193655,-0.060697740729499926
-0.12806268731228165,-0.06495569932207759
-0.12780303855304925,-0.06503215590660427
-0.3955920168172576,0.017952573970743135
-0.39373651476576843,0.019183071531626364
-0.1448218345729407,-0.05883835088127638
-0.14342886473737976,-0.05938529945982736
-0.12458647338885051,-0.0660138112940628
-0.1236263128290122,-0.06633014830719769
-0.12569973889802696,-0.06564906032664468
-0.13740563935785977,-0.06134856593817119
-0.1354638716605194,-0.06209056245791943
-0.13357351802652626,-0.06287779717551054
-0.12969980042287074,-0.0644843033947388
-0.40092155899300397,0.01600436559544413
-0.39959843234118364,0.01643012971334574
-0.39764467603911313,0.0171134342799316
-0.39569081865378364,0.017906292949204042
-0.12258026365852069,-0.06674610893277391
-0.11988211070158172,-0.06789607610365497
-0.11910945340940851,-0.06822376843108106
-0.13266707132122205,-0.06327502781176601
-0.1316308640541569,-0.06371298191260089
-0.10697211939951964,-0.07265408341824507
-0.1081649683843121,-0.07216577219129926
-0.40155210185414736,0.015840887251017042
-0.11349909885609427,-0.07027163477806864
-0.11210502658094176,-0.07073253113001302
-0.1101002278574845,-0.07140594567796224
-0.12188195395600285,-0.06702662702309593
-0.1179208130547229,-0.06872464194587839
-0.10634436490384626,-0.07291286658689838
-0.006225366941506489,-0.10882059983337579
-0.004594575124248714,-0.10941260928127819
-9.146285602178497E-4,-0.11075081972136205
-0.0010742059608071942,-0.11069262988538343
2.226415989555368E-4,-0.11116599933959961
-0.40545910054999657,0.01503125226810699
-0.40350563645373316,0.015397863979274395
-0.4093657068132769,0.014646935969526952
-0.40741244969254975,0.014789227457559067
-0.1160150219375065,-0.06942512649065313
-0.11405145452389417,-0.0701074002979335
-0.09515005046767158,-0.07696932176674187
-0.09449990453373432,-0.07716060569042343
-0.09847942802164308,-0.07593958255491591
-0.09647247178122673,-0.07659710515363968
-0.09253049162087254,-0.07782686511171251
-0.10429041424031549,-0.0736743703516226
-0.10226181698350859,-0.07447048889160957
-0.1005233127897322,-0.07518374074318784
0.005949341184063773,-0.10942322119944671
0.006336494838133248,-0.1092842552848293
-0.002669038053864934,-0.11011204860068863
-0.006472839160647085,-0.10873133303736209
6.74479567069119E-4,-0.11133211070123426
-0.008417491605419653,-0.10803139349539326
-0.008605924875380798,-0.107963994588431
0.29698500414515533,-0.0038948980771653713
0.295201847930909,-0.00454454934836762
-0.4132719810949088,0.014622421603777368
-0.41131887031294057,0.014606111048334201
-0.09099453988027022,-0.0784861475226872
-0.06518909165953476,-0.0877856505174999
-0.0633640049162468,-0.08850149041420244
0.007832236299241496,-0.10875284255660524
0.007962763560649538,-0.10870636761770777
0.004021717374013753,-0.1101184900053804
0.002265635622543637,-0.11075658273052724
-0.010245824972118227,-0.10738390857564542
0.2920087449883584,-0.005706618029462779
0.2930948098394903,-0.005311218739236158
0.2988899116919617,-0.0032010046383024312
-0.421083579526349,0.015603146359642961
-0.4191308008555019,0.015226893556557927
-0.4171779193947391,0.014962044518526351
-0.41522497999581365,0.014759988932653918
-0.09065845566785269,-0.07864729388372484
-0.0874898144191562,-0.08008156658669213
-0.08873369705840428,-0.07954849416995498
-0.08287654418608251,-0.08168722776458329
-0.08484149082489001,-0.08104824573558161
-0.08083634745735388,-0.08244377732417962
-0.07156650463687404,-0.08557768143282282
-0.07107160014423414,-0.08571638140255912
-0.06912407524154465,-0.0863214672398592
-0.06711995232975812,-0.08701377300128063
-0.0613041690847016,-0.08926584322493294
0.009278112180774217,-0.10824748434123838
-0.011015651781883233,-0.107130664261332
-0.010353978306358588,-0.10734574689583068
0.27715163530028,-0.011254658268027816
0.27751490226182673,-0.01112099253542979
0.30079530691740136,-0.0025053890426294263
0.2910941104615863,-0.006056601055028227
0.28725166230184906,-0.007487051507132374
0.28920311474910254,-0.006771587991345447
0.2853109354777578,-0.008195021062386109
0.2833461599971026,-0.008910872774449095
0.28175268612255083,-0.009491210586433652
0.27954374913830615,-0.010364452039793904
0.281397636335103,-0.009634433189276974
-0.42694270349083785,0.01587792192217557
-0.4249894441240043,0.016022647748747836
-0.4230363990244767,0.015935150533912906
-0.08682296780100868,-0.08037552389848807
-0.0849644251872337,-0.08100922240271564
-0.07941608554851844,-0.0830286027306002
-0.059277403882017,-0.09005139074097365
-0.07505049852998706,-0.08462210963912449
-0.0730840543500553,-0.08516803832171788
-0.07705892594388414,-0.08393427081240899
-0.07506454658549203,-0.0846181922249783
0.014016495095835118,-0.10659714293761188
0.013702738515119915,-0.10670296281711028
0.009783475359298657,-0.10807535354786357
0.011094204816979002,-0.107616113459674
0.011725807429954556,-0.107407711478161
-0.011555778768831855,-0.10697514114187366
0.36605149355801003,0.04309162819810039
0.3680052436856279,0.04376824088311734
0.3653215259803144,0.042641130912261384
0.36409712004512185,0.041739390139634264
0.36208579252733,0.04069099062386014
0.3552004528998234,0.03679109191867898
0.35628006753741803,0.03680898342067879
0.35201203588130636,0.03484090797238869
0.35237221018963827,0.035068740896388124
0.27640519034110156,-0.011665974618636922
0.3024881443311562,-0.0018962621273646847
-0.42889589266278183,0.015809273372971826
-0.07909882209149731,-0.08316045337093188
-0.05750414808482046,-0.09067093110022628
-0.05543528549609652,-0.09137243923632765
-0.05346777472121955,-0.09212189922770596
-0.05236893800891324,-0.0925850907271055
-0.043821394803929006,-0.0959250044697827
-0.041997327757468755,-0.09663406399493102
0.014744075822082876,-0.10639549068370792
-0.012104762567213084,-0.10683720094906156
0.2600785420089312,-0.017909546608114987
0.26202119477744623,-0.017169809621412815
0.2582254439125463,-0.018632627040090725
0.3695711605271492,0.04459033569553557
0.3601888851883781,0.03959000315483738
0.354326665948406,0.03651011709799882
0.3504178464132212,0.03372705523452676
0.34927179563061184,0.032890310502863056
0.3468370958364801,0.030939431117598518
0.34846338642291497,0.03228109289511499
0.344446386257485,0.028988511143521932
0.34455418069408905,0.029079474107778933
0.2756085322276152,-0.011960702424347257
0.2738186213732445,-0.01262131829765986
0.3041716812543767,-0.0012425527506182668
0.37972781211201306,0.047901247677931545
0.3810099310579902,0.048486033046140596
0.37191248050481734,0.04483595410325732
0.3758200175732511,0.04622907763883875
-0.43670897988661134,0.015176443958483716
-0.43475553564230507,0.015521540109175872
-0.4328021527335894,0.015800160699649075
-0.4308490025851366,0.015826515575914003
-0.44256883880782777,0.014654672948393913
-0.44061540591198,0.014987469630197816
-0.43866220343029794,0.015070543294230566
-0.051574403949059364,-0.09291849497487678
-0.04964823325333785,-0.0937032211903818
-0.04776148595236152,-0.09446625490399362
-0.045771148217516704,-0.0952048856951048
-0.039938609178536644,-0.09741105158445044
-0.03939105994109782,-0.09763835728338091
0.015801018223030004,-0.10606908612159148
-0.012386046175483134,-0.10679105177276786
-0.012700046555702955,-0.10671358416970025
0.01627219687237272,-0.10593450452898764
0.017615429440628792,-0.10556159910243339
0.017812458102074387,-0.10551591648754868
0.05678026538361672,-0.09136382632821939
0.0588342688457577,-0.09062163733128241
0.05655482349206438,-0.09145531738309613
0.08624356112170864,-0.08082113851131556
0.08808670867604718,-0.08014523801683925
0.19167887271765036,-0.042679388819617366
0.1897763124453214,-0.04352959606932043
0.188022621314543,-0.04424578986166202
0.19562835434751943,-0.04137674469033416
0.19374002508793176,-0.04197514528632496
0.1858968654646284,-0.04502521262110958
0.18390469755765762,-0.045755369817195045
0.2717160140214571,-0.013420302717357394
0.26973108514218824,-0.014202463938228679
0.2680545347162699,-0.01490726041212961
0.2659123398382849,-0.0157064257842788
0.2639805347289192,-0.016430612750568438
0.25622399280522373,-0.019473766121352924
0.25579365400385157,-0.01967297651706513
0.23871796410664567,-0.02607035680318292
0.2406626727994886,-0.02533628467952518
0.23685792936627556,-0.026765168029458195
0.3465087861236797,0.03068306364286321
0.3425994305489971,0.027319041807312792
0.3423320745834783,0.02703733614291103
0.34010862466741143,0.025086261841846293
0.34064469309466705,0.02557236376741922
0.3379572935235812,0.02313512099831655
0.3386899486793399,0.023818141403041018
0.3358636627281007,0.0211839269158904
0.33673516002650605,0.022015974384203562
