"Plane Section: Position[X] (m)","Plane Section: Position[Y] (m)"
3.5,0.001796563912784536
3.27,0.0018092341430984106
3.04,0.0018800931732094587
2.8100000000000005,0.0019902059872204804
2.58,0.0021435124222373026
2.35,0.002381849948393377
2.1200000000000006,0.0027080855433280733
1.8900000000000003,0.0031398233872882396
1.6600000000000006,0.00382244560303995
1.63191955435967,0.003999999999999903
1.4300000000000002,0.0052412445505196055
1.2000000000000006,0.007015126826420029
1.1760000000000002,0.0077380990197549165
1.1520000000000006,0.007913847875572696
1.1280000000000001,0.008569486898137791
1.104,0.009084358588194761
1.0800000000000005,0.009508162313794918
1.056000000000001,0.00996277945685886
1.0320000000000005,0.010331453717478577
1.0080000000000005,0.010717284899297155
0.9840000000000004,0.011198849224939932
0.9600000000000004,0.011837861101729413
0.9545974035127529,0.011999999999999966
0.9360000000000005,0.01255039985536608
0.9120000000000005,0.0133034436482187
0.8880000000000005,0.014134490276050168
0.8640000000000005,0.015057493266246544
0.8400000000000003,0.016073787368560365
0.8160000000000003,0.01717277392544659
0.7920000000000003,0.018398301348144873
0.7680000000000002,0.019799848654002382
0.7651565404580927,0.019999999999999532
0.7440000000000005,0.021428769479764718
0.7200000000000006,0.023190031431425933
0.6960000000000006,0.025079874927326412
0.6720000000000006,0.027515501968229245
0.6683076307114375,0.027999999999998783
0.6480000000000008,0.030483394786788295
0.6240000000000008,0.03399095520573459
0.6146775852772945,0.0359999999999982
0.6000000000000008,0.039092761366010156
0.5825008267493066,0.04399999999999745
0.576000000000001,0.04608707808258969
0.5593853093136589,0.05199999999999707
0.5520000000000005,0.05463369161139109
0.5377842063485099,0.05999999999999601
0.5280000000000004,0.06396506384444448
0.5182601877180616,0.06799999999999551
0.5057067896613978,0.07599999999999484
0.5040000000000004,0.0771940534532739
0.49478495100117104,0.08399999999999405
0.4848836910368779,0.09199999999999295
0.4800713226816358,0.09999999999999243
0.4837605168145106,0.12166666666665965
0.47999999999999865,0.13979420337946546
0.45599999999999874,0.13100722463118095
-0.6149780685405095,0.03599999999999694
-0.6240000000000001,0.03407820998896187
-0.5827450351187258,0.04399999999999609
-0.5999999999999999,0.039153372038119666
-0.5596670204516719,0.05199999999999546
-0.5759999999999997,0.046124472899793774
-0.5387864436632979,0.059999999999994696
-0.5519999999999998,0.05487204191739117
-0.518250519711369,0.06799999999999388
-0.5279999999999998,0.0641900613281599
-0.5021729331302538,0.07599999999999316
-0.5040000000000001,0.07515400502291256
-0.6682465954612907,0.02799999999999777
-0.6719999999999999,0.027504007289524644
-0.648,0.030528701650040124
-0.4917029765022204,0.08399999999999233
-0.696,0.02516457825190198
-0.4831828735182788,0.09199999999999163
-0.4776545944677775,0.09999999999999094
-0.4800000000000004,0.09668314512773893
-0.72,0.023198906612154128
-0.4800000000000017,0.11235028770466698
-0.7657291381750636,0.019999999999998522
-0.768,0.019841988311823454
-0.744,0.021448034620201645
-0.4819604517558559,0.12166666666665754
-0.4800000000000036,0.12976150715646692
-0.4560000000000038,0.13337503173668724
-0.7919999999999998,0.018432913064282803
-0.8160000000000001,0.017201773773446876
-0.8400000000000002,0.01608802937403284
-0.8640000000000001,0.015043854845265107
-0.8880000000000003,0.014150832683547818
-0.9120000000000001,0.013283966553007169
-0.9533480239025018,0.011999999999999487
-0.9600000000000002,0.011801878463547993
-0.9360000000000002,0.012511503868100168
-0.9840000000000002,0.011118367459278574
-1.008,0.010612203365443926
-1.032,0.010180963927561987
-1.056,0.009817833910358627
-1.08,0.009450477750272922
-1.1040000000000005,0.009065999156794352
-1.1280000000000001,0.008695020383235438
-1.1520000000000001,0.008245046813005204
-1.1760000000000002,0.008061261998917543
-1.2000000000000002,0.007105560381287936
-1.631579676377168,0.00400000000000009
-1.6600000000000001,0.0038237415040137477
-1.4300000000000002,0.005214680967700951
-1.8900000000000001,0.0031378103066418586
-2.12,0.0027106790295828758
-2.35,0.0023768026260696205
-2.58,0.0021466409292019346
-2.8099999999999996,0.0019855318931902986
-3.04,0.0018733354620446112
-3.2700000000000005,0.0018111533351738466
-3.5,0.0017974872932218038
-0.3562016039741269,-0.030397355144402515
-0.35849020296723433,-0.028447346471906308
-0.3545865135337063,-0.032093891513934894
-0.36239364830520715,-0.02445331169996814
-0.36042392028101145,-0.026488138197666725
-0.3641928401844895,-0.022579239741034464
-0.3525070156882508,-0.03430620138648411
-0.350678043802323,-0.03626061163698765
-0.35068318574589913,-0.03625526843711395
-0.3662965633985915,-0.01970443094257509
-0.36705858568550687,-0.018670975722887992
-0.3487313037094913,-0.03802541342946272
-0.3485404903287665,-0.03821523865184752
-0.3465094046007039,-0.040169790878034364
-0.3467794991720896,-0.03990588452485352
-0.36934532585018165,-0.014763118429364012
-0.3448277015831888,-0.0417962473580582
-0.34449067394573896,-0.04212433442533521
-0.34241121734364055,-0.044078920629824506
-0.34287586732242137,-0.04363440483668076
-0.3701986266631454,-0.013742903071731212
-0.37251138166122344,-0.010854643457034557
-0.3409240492289295,-0.045495577732826566
-0.3403645879811026,-0.04603348377468384
-0.33828501376830117,-0.047988070061790275
-0.338972220982719,-0.04734229741189052
-0.3741016353839303,-0.00912730845417627
-0.33702038263327627,-0.04917463432903607
-0.3361935377611367,-0.04994266470935977
-0.33403424673184956,-0.05189730699386996
-0.33506852497098416,-0.05097947782302206
-0.37612695737813895,-0.0069458527176526185
-0.3331166202489662,-0.05271732804175424
-0.33170336910880616,-0.053852069810061666
-0.3780045401129635,-0.004363673197468816
-0.37895179466288004,-0.00303761743563722
-0.3311646064341746,-0.054299875884308485
-0.3292124582808599,-0.05569118195884325
-0.32907093513977553,-0.05580704445572722
-0.326552033597188,-0.05776193935007963
-0.32726037377960826,-0.057173101905710316
-0.381118350483061,8.701554338992843E-4
-0.3211653130670864,-0.06167197423723435
-0.321404032805586,-0.06149434074553457
-0.3253083771537566,-0.05878011957760167
-0.32406225541595024,-0.05971681378660297
-0.32335629132498456,-0.06026014967582674
-0.3819063578847436,0.0019473334501364215
-0.3842969115682093,0.0047786391906035515
-0.3009118863590059,-0.0735457886222001
-0.2993472981496596,-0.07406594402079611
-0.3194518700711096,-0.06286488936874783
-0.318409782509145,-0.06362703535258121
-0.31537667323082985,-0.0655822914542355
-0.3155474457403231,-0.06546524883154288
-0.38580918871850467,0.00681616458161004
-0.38699705088043757,0.00868678687801612
-0.2937336090573608,-0.07616500172489545
-0.295521309412566,-0.0755191143432947
-0.2916200617547225,-0.07691589757743196
-0.2896067328597922,-0.0776269901195486
-0.2877014533499208,-0.07830279873927096
-0.2857449739725738,-0.07900447378112187
-0.28380413439905716,-0.07971212782662865
-0.281840803420768,-0.08043193549775232
-0.27988981263209767,-0.08114866726392195
-0.30271295166650364,-0.07253399488205411
-0.30122993907098117,-0.07340950075178872
-0.30491246106255043,-0.07160434743261371
-0.3048817298787582,-0.07163643146577138
-0.29743383907966253,-0.07481732369508644
-0.30111063450539793,-0.07347493455705179
-0.3174997493262065,-0.06429521355474048
-0.3135951881308841,-0.06670073529224556
-0.31225765377317927,-0.06753760790381681
-0.38850005550875266,0.012594093633362832
-0.2780194826721858,-0.08183336124716972
-0.30496237697411094,-0.07157536291207504
-0.30578568651493754,-0.07097192096444772
-0.30546269542361887,-0.07144863201329618
-0.3116429315591844,-0.06793769907037317
-0.38971019620522096,0.014280677453700624
-0.4041637415070392,0.043855104362181124
-0.4053129040124652,0.04602090140181338
-0.25251446716268905,-0.09101438083771779
-0.25271478692311977,-0.09094359052278475
-0.25072416712216516,-0.09166306075098932
-0.2603422946734435,-0.08821287752015912
-0.25838493174956384,-0.08891214018044313
-0.25651240838416284,-0.08958174889551558
-0.2759827894860734,-0.08256830941706363
-0.27402642318087445,-0.083270304291378
-0.2722275579643836,-0.08390633019045889
-0.2701101036689083,-0.08466446060724273
-0.26810603997986027,-0.08539389686662777
-0.2642579158973829,-0.08681680685889387
-0.2623175297906861,-0.08751737419711818
-0.30969055261511846,-0.06900045590089146
-0.30883447023496297,-0.06949313801468752
-0.3077382037448719,-0.0701060252372312
-0.39383253256674733,0.02041034138070866
-0.4007770016749448,0.03604022340576267
-0.4079282126285844,0.05167025065745631
-0.2368709099904956,-0.09665055353135038
-0.23500658011618575,-0.09733350929416963
-0.2486093307799403,-0.09243919552184916
-0.24660124952612555,-0.09314965671557915
-0.23881928917308914,-0.09592666208926284
-0.25447031164539574,-0.09031095539541173
-0.26620730889120287,-0.08609569476391049
-0.3975129351576527,0.028179060607568057
-0.39753934062048585,0.02822544717033484
-0.41088707981220346,0.059484831053014435
-0.43346932935336907,0.11418820753686448
-0.4365124059562799,0.11791993697247878
-0.44605757964840764,0.12982205405868064
-0.45212461485990496,0.13613458314207627
-0.46518490500423726,0.14546049397998226
-0.4677415763771215,0.14758350014255506
-0.21535991439627097,-0.10439726306444433
-0.2134928788191327,-0.10506364123750271
-0.2173190091700236,-0.10370274824262117
-0.23296379345570473,-0.09806993966067439
-0.23100763042531708,-0.09877249180961611
-0.22922033780102427,-0.09941847378354768
-0.22710091881779743,-0.10019298804054638
-0.225102878960738,-0.10092300493305995
-0.24468612259352607,-0.09381446664783305
-0.24272459048816214,-0.09450229956433594
-0.24078667836765572,-0.09520129801442209
-0.41311249729052635,0.0643974060297306
-0.41474833670542266,0.06730004533584359
-0.4188127071791037,0.08292790422406317
-0.4209083164178322,0.0881467189480798
-0.42500669988545425,0.098557259073972
-0.48336644183102884,0.14778052508418393
-0.20949996462859646,-0.1065283299288543
-0.20772393300171932,-0.10719412004110793
-0.20560453255679434,-0.10797974882497
-0.2036067437472729,-0.10870246942422068
-0.2114486614287956,-0.10580530923029263
-0.22319543488049046,-0.10161684990955416
-0.22123932113307795,-0.1023195371669843
-0.21845559107285575,-0.1032996832437633
-0.21930039537214113,-0.10300738428272861
-0.19974009749209093,-0.11009851931997816
-0.20169373085837047,-0.10938903213767323
-0.1978100195921467,-0.11080222850518989
-0.1920316599527909,-0.11293760669667326
-0.1938816931161273,-0.11223382285083716
-0.19196166756411467,-0.11296376439107658
-0.48338712616322477,0.11833470817918126
-0.48211470372706683,0.11422237867521286
-0.18414538299425698,-0.1158685934175614
-0.1821496176919607,-0.1165888647221956
-0.19000112494014232,-0.11372599087755884
-0.1880496819013423,-0.11444148280729949
-0.18626777025971097,-0.11507996237051923
-0.19583379023878253,-0.11152012408142264
-0.48223059743941854,0.0985974562303485
-0.14111550138040807,-0.1313403810097533
-0.14316003859465481,-0.13060042979414424
-0.14071591679678133,-0.13150036333842466
-0.17827132832388554,-0.11796099191879036
-0.17634499637005288,-0.1186665540230806
-0.1743729196596832,-0.11940425053485298
-0.17243549308050166,-0.1201581683625362
-0.17059097070330595,-0.12086780592767138
-0.1802280478474792,-0.11725996538698144
-0.48340209366190456,0.09702726535940533
-0.14396037980739523,-0.13031689370986907
-0.14699472818139125,-0.12926216182116215
-0.14493142082646815,-0.12997872418383064
-0.14112342219123702,-0.1313620957848632
-0.14145583816748902,-0.13125460423553056
-0.1417488310196205,-0.13118603378408827
-0.14728843703586314,-0.12916537413934998
-0.14906827373876042,-0.12857313279207544
-0.1505004204429967,-0.1280874155375042
-0.1685359890680942,-0.12159842409916914
-0.16647636301692595,-0.12233285058671806
-0.16266105228362726,-0.1236884042988308
-0.16066767333495738,-0.12440720860419704
-0.11962680368738698,-0.1391482198792457
-0.11762538427196055,-0.13986686070389626
-0.14200315181461298,-0.13118692979133412
-0.14210616008720847,-0.1311228849880764
-0.1509398027465958,-0.12794683701985657
-0.15875564646415352,-0.12511248032661004
-0.15680432078219161,-0.12582829398822687
-0.15487966318190532,-0.12653000682966498
-0.16470905477812345,-0.1229650084388691
-0.11537594044966383,-0.1407018955995888
-0.11571958679908145,-0.1405673308910263
-0.1199711099299517,-0.13902573424399844
-0.11814568055998942,-0.13973321697500907
-0.11763978136574015,-0.13990633010423897
-0.14118934809807526,-0.13154283059493388
-0.15289801860229169,-0.1272499126583761
-0.11572432133029814,-0.1405803105319779
-0.12168174251786709,-0.1384297300772053
-0.12251655100207721,-0.1381388722709078
-0.12346084323848794,-0.13782845936607338
-0.12450162924660162,-0.13747722570374285
-0.11965076775843603,-0.139213916993437
-0.12553154362461225,-0.1371399445421261
-0.12742831104867866,-0.1365033354125938
-0.13922155530464406,-0.13232375706134425
-0.12760595895245946,-0.1364439451070515
-0.1294751348160239,-0.135820553095464
-0.1209916476240048,-0.13875754748074953
-0.138609303123455,-0.13256538558941658
-0.13144803189439114,-0.13516387706908736
-0.10797533109161703,-0.1435979449590757
-0.10611070360025296,-0.14422439821061098
-0.10801307390544151,-0.1435853528112011
-0.12301282830372427,-0.13811395316566558
-0.1217176014239434,-0.13852803668973768
-0.1373185737794241,-0.13306184832353307
-0.13537352996258342,-0.1337948836170276
-0.13188162706994547,-0.13501941272859935
-0.13344738046525173,-0.13448404339245337
-0.10405012318007831,-0.144967733870917
-0.10201256558682635,-0.14573932154226263
-0.11082004507484117,-0.1427019606692354
-0.10995715173545516,-0.14296573274348118
-0.12340250102918042,-0.13811230918423276
-0.11978183620190712,-0.13957323901677027
-0.11778231402891556,-0.14029708110096323
-0.09822603975085234,-0.147197127723593
-0.09624789057869734,-0.14793357927882428
-0.09235430470188007,-0.149295885429468
-0.09243113227089723,-0.1492691145363788
-0.10068801646367218,-0.14625728433930463
-0.10026277947963001,-0.14642169183619014
-0.006368522989021178,-0.18039687862823478
-0.004490859379540716,-0.1810795068489722
-8.119412920187198E-4,-0.1824183937975551
-0.0017689312497422348,-0.18206957141649294
2.3088641810998012E-4,-0.18279903680548748
-0.007319516779584445,-0.180050388728911
-0.11588105058160728,-0.14100998124603956
-0.11393305907496838,-0.14173493549553776
-0.11198341494533405,-0.1423511978256526
-0.12181597130387609,-0.13879771612863898
-0.0922661212402211,-0.14932930494155358
-0.09431784982535042,-0.14861357116960458
-0.07473902501207547,-0.1556780664509201
-0.0767218049333725,-0.1549623718170418
0.011800661806923865,-0.17900577956268326
0.012743283247021776,-0.17866558988391085
0.007926939957248698,-0.18040520689309855
0.009274292797691413,-0.17991722157376555
0.006048026931124875,-0.18108649735772891
-0.002565758210859441,-0.18177948181270015
7.763197740565824E-4,-0.182999700349306
-0.014269819996475926,-0.17752016318359076
-0.01221247098680558,-0.17826703016137313
-0.01024029187913087,-0.17898579164942044
-0.008310600461203847,-0.17968999800339722
0.10765580844417913,-0.14420414800206421
0.10950348820806438,-0.14353123122519035
0.10686199134709112,-0.1444963629829478
-0.09045251824432718,-0.15003483658804076
-0.07733951992255218,-0.15477402083422437
-0.07442323158358269,-0.15583778351730837
-0.07428597203240613,-0.15587278766911875
-0.07419565646518554,-0.1558940765243727
-0.014887968472533108,-0.17729789813138036
-0.016604311772468017,-0.17668416883731397
-0.016038141183268455,-0.17688561211049603
0.013775065830133815,-0.17829416957712646
0.01583339794442249,-0.1775502362771746
0.00986905708518552,-0.17970277762575615
0.004122073598160289,-0.1817861568597676
0.0029258393909984103,-0.18222282067328263
0.0021986561212899987,-0.1824869154038332
0.01754628936208971,-0.1769335864835657
0.017601036402753626,-0.17691387553956883
0.019643139790387336,-0.1761860472413161
0.1114580624445189,-0.14282434082306383
0.1121311019508889,-0.1425827541268618
0.11345133807558873,-0.1421194503618331
0.11364358489421464,-0.1420519502335307
0.1062380756121552,-0.14474144552249912
-0.08974230589703572,-0.15039040219993563
-0.07973884486480437,-0.15403932415508537
-0.07880419353078505,-0.15430502894465717
-0.08062722576194206,-0.15382271868083078
-0.08191278546886803,-0.15345708768794403
-0.07371480336151545,-0.15623668936992305
-0.07460155093008124,-0.15582104933470659
-0.0743715660739085,-0.15586560128220486
-0.06463042410001629,-0.15976110463092913
-0.06512154705066119,-0.15955250120650738
-0.01777390856203604,-0.17627604120172574
0.0023669761976983727,-0.18242675114512824
0.019971143886855714,-0.17607143210872092
0.06058967205607872,-0.16134495030083196
0.060817776146401166,-0.1612646974236811
0.11380270270641175,-0.14202190061636963
0.11357045301580773,-0.1420986700126575
0.11357277212820313,-0.14209636792341193
0.10694850727447594,-0.14451117253836107
-0.08896490551290837,-0.15088471442870977
-0.08858238252269288,-0.1510859047037047
-0.08668620848917766,-0.15195291571981528
-0.08483657027850006,-0.15261099865624983
-0.0827396979082468,-0.1532643037071779
-0.072905852124182,-0.1566316818294432
-0.07096767548269015,-0.15738354337338867
-0.06905228073016732,-0.15807664977779595
-0.06707080339664892,-0.15883101449370188
-0.06330388925575067,-0.16028873756040785
-0.01869169629441088,-0.17596901565872192
-0.018085717084127005,-0.17617272853004318
0.020867126619792186,-0.17577377162811847
0.05970348739323073,-0.16166937915968438
0.06059955860745406,-0.16137217286027272
0.06063993152316774,-0.1613432986299772
0.06264477474453703,-0.1606372168872918
0.061823775925486754,-0.16094095050176907
0.09974945208093737,-0.14711754544624284
0.10060238297730169,-0.1468159257633381
0.09776048482638652,-0.14782427315057525
0.0975006473095637,-0.1479423983863864
0.1134653929639185,-0.1421581504118674
0.11400381631228768,-0.14196054290500681
0.11398895056082291,-0.14196490229564301
0.10768017565929906,-0.14427124298157673
0.1095309549834917,-0.1436068608252574
-0.06129627532899465,-0.1611962635706843
-0.019299797874740135,-0.17578882916343674
0.02131309463983515,-0.17565341419911018
0.06689508448118955,-0.15916158885075732
0.06657182252396428,-0.159272721715317
0.06303032619165533,-0.16050276169757227
0.06472092252324266,-0.15991771460944348
0.06260659409076128,-0.16071906103296277
0.06257039968567549,-0.16072803525615909
0.06165405563256447,-0.1610200635839107
0.10341913928609837,-0.14583455747188248
0.10180572345456591,-0.14639575785609338
0.10358077543692848,-0.14578278102838133
0.10564098820898565,-0.1450734583200592
0.0977751436408892,-0.1478646361076811
0.09821520820024249,-0.14772449476132843
0.09252536886193996,-0.14985331220543907
0.092002861229113,-0.15002944010802605
0.09000465969198279,-0.1507293122444739
0.08890069774780589,-0.15116970187078788
0.08645237285997125,-0.15215248777310555
0.08624536111392153,-0.15221789713459252
0.08275960626622188,-0.15339999231804297
0.08210759187811018,-0.15362546031119145
0.11148300337231709,-0.14289301551695616
0.10653781170381092,-0.14476434430670698
0.23858540018776306,-0.09709677827254579
0.240536980440552,-0.0963816439545257
0.2367254174993474,-0.09779172098334156
0.36199898942790937,-0.026995607068361446
0.36025974029464825,-0.028780553413843397
0.358224769286123,-0.030899206815996533
0.35393604672339435,-0.03480244514934922
0.3563507029015244,-0.03274726062802979
0.35202267583827923,-0.03675422657616578
0.3524419299223582,-0.03633755325298819
0.36416885863559134,-0.024698610424555158
0.36568742336006366,-0.02309194705984796
-0.060309657910481235,-0.16165328756982855
-0.019972606162160112,-0.17560585399147305
-0.020722352831967827,-0.17542603550892702
-0.020204087546816532,-0.17554961928220328
0.021703487419208804,-0.17557404379077718
0.022152254877614252,-0.17550467839320147
0.021761430901626203,-0.1755632911553305
0.06854790646983636,-0.15862505816803246
0.06266964665501193,-0.16070570154239322
