"Plane Section: Position[X] (m)","Plane Section: Position[Y] (m)"
3.5,0.0012438248812559
3.27,0.0012525064406635226
3.04,0.001301618258096627
2.8100000000000005,0.0013780226616525583
2.58,0.0014891139597119035
2.3499999999999996,0.0016609969165153424
2.1200000000000006,0.0019063581477957575
1.8900000000000001,0.002241845179291698
1.6600000000000004,0.002665376781238819
1.4300000000000002,0.0034568110060409574
1.3200039896374993,0.003999999999999905
1.2000000000000004,0.004596562171375733
1.1760000000000002,0.005092054997038791
1.1520000000000001,0.00523277204707403
1.1280000000000001,0.005629638228089151
1.104,0.0059859619636956525
1.0800000000000005,0.0063035828847790455
1.0560000000000005,0.006628510990294028
1.032,0.006908771790253946
1.0080000000000002,0.007174905519968487
0.9840000000000002,0.0074911629288538575
0.9600000000000002,0.0078839592983765
0.936,0.00828748125062437
0.9120000000000003,0.008735097373377791
0.8880000000000002,0.009233910472277396
0.8640000000000005,0.009812556323417815
0.8400000000000003,0.0104445909776592
0.8160000000000002,0.011112484227145215
0.7920000000000005,0.011929216193861194
0.7902294380527897,0.01200000000000006
0.7680000000000005,0.012861442615257658
0.7440000000000003,0.013858364893020163
0.7200000000000003,0.015001125786885035
0.6960000000000003,0.016138313894886222
0.6720000000000002,0.01764575453777939
0.6480000000000001,0.019327772461028545
0.6409702186163881,0.019999999999999338
0.6240000000000003,0.02161333742590327
0.6000000000000005,0.024371052121498017
0.5781715789679971,0.027999999999998713
0.5760000000000005,0.028422777919027246
0.5520000000000007,0.03336607947437956
0.5425674968227272,0.035999999999998235
0.5280000000000007,0.04048975017007715
0.517808751466339,0.04399999999999729
0.5040000000000007,0.04821558860809678
0.48894477402665415,0.05199999999999629
0.48000000000000054,0.054492714132185545
0.46473139311226463,0.05999999999999582
0.4560000000000003,0.06513072266627336
-0.5433780347112823,0.03599999999999656
-0.5519999999999998,0.033532665527230734
-0.5171101257863839,0.043999999999995834
-0.5279999999999998,0.04047289613914658
-0.48773997774332195,0.0519999999999949
-0.5039999999999998,0.04812071264849187
-0.4615429486404909,0.05999999999999392
-0.48,0.05387742866607048
-0.5783526545596555,0.027999999999997395
-0.6,0.024447872234088775
-0.5759999999999998,0.028440321813140622
-0.45599999999999985,0.06364516045238275
-0.6415988697155733,0.019999999999998304
-0.648,0.019383145251928496
-0.6240000000000001,0.02165560820051779
-0.672,0.01766083192835046
-0.44138414358078226,0.0919999999999913
-0.4397686874871143,0.08399999999999183
-0.6960000000000001,0.016217850617933287
-0.43939510670512366,0.09999999999999046
-0.7200000000000002,0.01498511239699379
-0.4320000000000004,0.10324158898425133
-0.7440000000000002,0.013860730786153103
-0.7900943928783517,0.011999999999999013
-0.7920000000000001,0.011923447948631087
-0.7680000000000002,0.012860025196666017
-0.8160000000000003,0.011092506483062037
-0.8400000000000003,0.010419879054690046
-0.8640000000000001,0.009793086987828568
-0.8880000000000002,0.00923155989877549
-0.9120000000000001,0.008714580810901047
-0.9360000000000002,0.008266026346630892
-0.9600000000000002,0.007866873502408014
-0.9840000000000002,0.007458820903769315
-1.008,0.007131384107231811
-1.032,0.006843915236295534
-1.056,0.006575647194630028
-1.08,0.006326330458453249
-1.104,0.0060370182697150766
-1.1280000000000001,0.005704679669836251
-1.1520000000000001,0.005383823085296988
-1.1760000000000002,0.005241209255005373
-1.3235861240576794,0.0040000000000001215
-1.43,0.0034538654388320982
-1.2000000000000002,0.0046385103774114885
-1.66,0.002662168671417167
-1.8900000000000001,0.0022367118889136204
-2.12,0.0019169870087910128
-2.35,0.0016581967672535899
-2.58,0.0014905475994966208
-2.81,0.0013798674504157614
-3.04,0.001296772755465842
-3.2699999999999996,0.0012520874494250814
-3.5,0.001244468131598217
-0.3585260587681979,4.576262464493347E-4
-0.35781331945652317,-2.782183876949512E-4
-0.3546234432920135,-0.004186966573693498
-0.3613626040584883,0.003630811138093417
-0.3514146961761651,-0.008095729531623535
-0.3500001936859205,-0.010049962382232554
-0.35072102012136785,-0.009077227597630166
-0.3624289268902613,0.004779466750178895
-0.36480080230970147,0.0075397537070716406
-0.3487697725411605,-0.011476375040227116
-0.34828812495293715,-0.01200442816342149
-0.34653304496794424,-0.013958927613218299
-0.3468182905320299,-0.013576042133116768
-0.3663309284288584,0.010208358053426358
-0.36701017209072084,0.011447734366766549
-0.344866749206496,-0.015599933168067261
-0.3445453481172146,-0.015913609152143023
-0.342444485232964,-0.0178683792758172
-0.34291500337087333,-0.01736256482968252
-0.36911307028198903,0.015355631682033376
-0.34096338182189717,-0.019283971305230584
-0.34042121464018144,-0.019823088661355823
-0.3382332364333766,-0.021777926977654946
-0.33901163963792896,-0.021051267910912976
-0.37023191794442667,0.016930097585420734
-0.3716976998625166,0.01926390608970681
-0.3370598950136227,-0.022815447014446922
-0.336049327555005,-0.02373276210854164
-0.33382242430745207,-0.02568763089480916
-0.33510814177892473,-0.024568626419615665
-0.37333051712531196,0.0231714354323711
-0.333156348851173,-0.02627109842394634
-0.33150687518524197,-0.027642569071784744
-0.3741324334777659,0.024257344193202836
-0.3312044969152387,-0.0278981881231892
-0.32925256248880574,-0.029419897097159683
-0.3290401447525886,-0.029597625591329016
-0.32656055079548135,-0.03155269218025095
-0.32730064262679376,-0.03096021197161105
-0.3761596931547613,0.027079901267503266
-0.3212631673077152,-0.03546309009272429
-0.321444685981918,-0.03532941610077901
-0.32534874050999596,-0.03252319616265564
-0.324057425696348,-0.033507777189005786
-0.3233967834821528,-0.03401603208564777
-0.378033837184115,0.03044995958919509
-0.3784205497472775,0.03098792223033173
-0.30270996651151527,-0.046296031487603306
-0.30211375675919927,-0.046616112975328104
-0.30107184965421685,-0.04714951223226925
-0.2993503517166535,-0.047780471056672796
-0.31949261995361694,-0.036683005148875555
-0.31845746213689846,-0.037418411956814834
-0.31544110212727194,-0.039373898718510034
-0.31558839719086085,-0.039274307151660075
-0.38193354960414116,0.038803174549676044
-0.2955379923717886,-0.04924553435280882
-0.2937608871444705,-0.04991880972329977
-0.30285473818400244,-0.046280951909589675
-0.3049724970535354,-0.04539808475684162
-0.3049417019837002,-0.04542561635798206
-0.29743921774951104,-0.04852162206643364
-0.31754058074875247,-0.03807086085302826
-0.31363621838450506,-0.040483823489671666
-0.3122772306404854,-0.04132950095004861
-0.29269931671587235,-0.0503780478687275
-0.2916814869787773,-0.05076302442485543
-0.2896822814205334,-0.05151286266444921
-0.287788595951585,-0.052220458015473974
-0.28583914930383103,-0.05294141187892119
-0.2839010449700315,-0.0536565628268347
-0.2819408571676446,-0.05438498453001689
-0.27999655708180093,-0.055120053075841495
-0.3050140012729358,-0.04537406354571903
-0.30582708714746876,-0.044790438620535916
-0.30551126092248326,-0.045241048450754676
-0.3116840605714146,-0.041720158499690116
-0.38496544359908086,0.04661805026628002
-0.3875021110971335,0.05443253832667888
-0.3897295418372173,0.059894721931208594
-0.3944890839145534,0.07006301241568934
-0.39068407414070816,0.06224753151517118
-0.39753117591820797,0.07377887097522945
-0.40086795988580187,0.07788050810170188
-0.2781339721208717,-0.05582597402864031
-0.30973178493007225,-0.0428059692186396
-0.3089070032175766,-0.04328526471406148
-0.30777953406151987,-0.04392342689807315
-0.405336188563755,0.08334694117745034
-0.2605155804220218,-0.062366654460290286
-0.2585515123382739,-0.06304754287872116
-0.2566679904930331,-0.06368700993539567
-0.2761085565503659,-0.05659183366148213
-0.27238426107928604,-0.05801465099080604
-0.2741662218812686,-0.05733228902138282
-0.27026564908119444,-0.0587696115339266
-0.2682640265942546,-0.05950573900741826
-0.2644276436440731,-0.060960824895535094
-0.2624921231733858,-0.061674729577623516
-0.40739979861806225,0.08569812352477371
-0.23696539259833788,-0.07058837434043086
-0.23509971304538135,-0.07126763028170474
-0.23892248230060692,-0.06988835957449076
-0.2546150974095406,-0.06438662928735842
-0.25265302290358743,-0.06507298170372702
-0.25085699287841867,-0.06570595785351463
-0.26637133197784324,-0.060224079659653006
-0.41314085757307434,0.09335400286689538
-0.41334389826152296,0.09351527887412307
-0.21543241882357567,-0.07827486826015974
-0.21357208314402187,-0.07895961275700354
-0.217388857048577,-0.07757306792533838
-0.23305896583629818,-0.07200965231437953
-0.2311055451347902,-0.07271972307737587
-0.2293131570990593,-0.07335174087846988
-0.22718846046587338,-0.07411178986088372
-0.2251886495603756,-0.07483695241975814
-0.2487351398430624,-0.06646286025546393
-0.24673037321550917,-0.06718241104471889
-0.24415534550301216,-0.06808965417773317
-0.2428553459018976,-0.06853953968781971
-0.24090500552269106,-0.06920447652297972
-0.4209466617258225,0.10191093135531153
-0.44226672176808335,0.0857254168515525
-0.44125720659908674,0.07791212422406302
-0.4321763846142374,0.10915502546103756
-0.43656332280719534,0.11256992304458867
-0.18416623229408746,-0.08960460376804735
-0.1821750920812865,-0.09033755323655047
-0.19001575292423095,-0.08744495124671661
-0.18806018406535513,-0.08814913434014876
-0.1862876920510034,-0.08881343376735074
-0.2017449729274141,-0.08320836010069368
-0.19978039359855004,-0.08388784729856973
-0.19784784264806912,-0.08458477843629283
-0.19392608293873395,-0.08603437130684977
-0.19206635111189035,-0.08671156669977328
-0.20958165654644131,-0.08043111767546096
-0.20780352381919798,-0.08109114515668281
-0.2018631386577081,-0.08316901199405254
-0.2056790432026348,-0.08186284746587198
-0.20367455915983923,-0.08256721911231367
-0.21153140791340358,-0.07971099000057087
-0.22328169061663738,-0.07553212750148736
-0.22132755528482534,-0.07624023960580732
-0.21936264484316775,-0.07692469464096102
-0.2193846974700169,-0.07691731404092855
-0.24481855381459727,-0.06785629371263752
-0.4444075053001839,0.07209894628526631
-0.4443921457850426,0.09172055702847769
-0.44556317749559504,0.09354049966326594
-0.45218758607157633,0.11351721001929559
-0.16677617915376294,-0.09587706746136834
-0.16646638773415973,-0.09598437287289285
-0.17831166182131927,-0.09175041568101984
-0.17785660911546644,-0.0919279616603329
-0.18026222190473834,-0.0910325045361306
-0.19587409806113426,-0.08530948493296107
-0.4463050582161733,0.07010357321633476
-0.45219337170213336,0.1061261309610968
-0.45545684755255145,0.10917324907313772
-0.16953358305790422,-0.0949646757418407
-0.16854055960926145,-0.09528980984694482
-0.16469854171693393,-0.09661505955102351
-0.1636522474462447,-0.09701685572350738
-0.16267999276013184,-0.09741918689195939
-0.16210206351410747,-0.0976761174566168
-0.17640244227560956,-0.09250287885279905
-0.1725004656923642,-0.09401510799273533
-0.1744481525834919,-0.09328932200258956
-0.17062379260110005,-0.09463661879472632
-0.4522243630921981,0.06653497285873045
-0.1549089106770923,-0.10028903826869998
-0.15533177548477156,-0.10014630424353957
-0.16072070041561207,-0.09823141760998577
-0.13726104427460764,-0.10658301376648968
-0.1372840374665446,-0.10657503674977278
-0.13919600881832234,-0.1059325912166344
-0.1394184753953557,-0.10585871640328866
-0.1353002045535531,-0.10727275048117078
-0.13337390912484423,-0.10796151326503992
-0.1313952950073531,-0.10869818684022685
-0.13036248698690772,-0.10910041269621787
-0.4571568816365916,0.062299565474375665
-0.15291435980572582,-0.10097357119892234
-0.15101823575696316,-0.10172012928528984
-0.15098035280593083,-0.10173685103434128
-0.1491520766422357,-0.10248170663004166
-0.15881051297030596,-0.09894172912500286
-0.15685214082688154,-0.09963822897631902
-0.14115983866223752,-0.10531703419364377
-0.130438635281024,-0.10911758929480242
-0.13003512326890565,-0.10928229784315453
-0.4600433535801658,0.05824650394585657
-0.14505975093057719,-0.1040093609762658
-0.1471079037305268,-0.10325125504966236
-0.14329208551799283,-0.10464125904211785
-0.14121821621678754,-0.10530081817899278
-0.11322968379104985,-0.11535143538447828
-0.11190346822352948,-0.11581091185911348
-0.11000227161165094,-0.11652897921821136
-0.12985259894456846,-0.10944255943364957
-0.12951716425571064,-0.10961461229300667
-0.1281696999437148,-0.11019707634395018
-0.4647531710110724,0.054493009347116525
-0.11545369848482384,-0.11460243233080653
-0.11383385327415055,-0.11514184333188307
-0.11029954132238602,-0.11643411794127234
-0.11043210302150822,-0.11641711206628677
-0.11011837441894864,-0.11654906251172802
-0.12770574152168507,-0.11039630695969971
-0.4678599943576047,0.05295976423260306
-0.11580861789517924,-0.11449027198213707
-0.11085720374348856,-0.11637316180015651
-0.1173792843437328,-0.11399353522413286
-0.11976342067082074,-0.11320158298314921
-0.11774883913892273,-0.11388415161184634
-0.12566675010982978,-0.11118940964178617
-0.09824129537559297,-0.1209178104148852
-0.0962613208627737,-0.12164925581793254
-0.10029541106922371,-0.1201900057067066
-0.4756722951148773,0.05321735227226464
-0.11175948521448391,-0.11618445759258639
-0.12308865754369303,-0.11205093008633933
-0.12181613866754837,-0.11247699945601947
-0.12360005609486949,-0.11188891985744226
-0.09486149220848504,-0.1222093086686527
-0.10454009220281019,-0.1188185034632759
-0.10415325211957525,-0.11892928279039558
-0.10190068643925534,-0.11964100957945126
-0.10207347903134374,-0.1195851600129083
-0.005372928766798981,-0.1545952821718658
-0.004541698376308273,-0.1548979139392216
-0.48348668221114455,0.05080966534333611
-0.11188836408964145,-0.11634818445262593
-0.08783938051090004,-0.12477137507653117
-0.08653510839120682,-0.12521753045735345
-0.08508011792423717,-0.1257781112676306
-0.09436016076656516,-0.1224084091202009
-0.09241749604294541,-0.12314795986672766
-0.1059597761354883,-0.1185112710991522
-0.10822805595810227,-0.11796949269686864
-0.10631193273147285,-0.11845481828249434
-0.06926470841335755,-0.13145480736734277
-0.06897479994745337,-0.13154310843589562
-0.0685449791979566,-0.13171740558921224
0.005998102747425731,-0.15490483802892635
0.007399083095914725,-0.15439758274844145
-0.0026165267546164822,-0.15559789049133735
-0.006419364204914784,-0.15421520761425572
-8.625186952083366E-4,-0.15623661154972734
7.25938229940747E-4,-0.15681800168152932
-0.012264619320179837,-0.15208889742768908
-0.012290039016800891,-0.1520797493804354
-0.010291223954304611,-0.1528043268476906
-0.008361110962937646,-0.15350738009305304
-0.4912995579869639,0.050332673532472345
-0.11016709457002449,-0.11722000350363701
-0.09050213983740771,-0.12384970911826575
-0.08850343409372871,-0.12454831132017027
-0.08470714855319886,-0.12593503315014337
-0.08379381087665864,-0.12638792883889882
-0.07116780302351296,-0.13085411634957222
-0.07091821822488288,-0.13092680766239695
-0.06700897414881504,-0.1323403639422564
-0.0668032043823921,-0.13244657059181691
0.01409443208086926,-0.15198715469804452
0.01372749216075308,-0.15211892783807773
0.009820476510295106,-0.15352479125605756
0.010531095393715243,-0.15326861761004515
0.011752961550939934,-0.15283019759687574
0.00787764198817376,-0.1542252796967058
0.004071900798371418,-0.1556038167321715
0.0028033958807273827,-0.15606620325526302
0.002093374927788138,-0.15632400050445916
-0.013735333494206844,-0.15156475827362367
0.052806782005902914,-0.1379481115613013
0.0530982457370245,-0.13784398538677553
0.0512690991553669,-0.1385081192481045
0.10350510415646784,-0.11953017334647367
0.1055526689437693,-0.11878602435192717
0.10747152880714522,-0.1181019161613977
-0.08288258582515481,-0.12693114486772608
-0.0731624009810639,-0.13026687285673721
-0.07291552280879217,-0.13033701384146495
-0.07613464306721102,-0.12939317882658563
-0.07488159175631419,-0.1297477026924351
-0.06541760813756647,-0.13309261451891125
-0.06512734989256405,-0.1332472143978219
-0.06330104187192298,-0.13395972611125345
0.015788713185163068,-0.15138295042656363
0.002316682927539353,-0.1562441270525382
-0.014326849487800752,-0.1513554072950261
0.017296640139664685,-0.15084297562928767
0.017557861955595777,-0.15075075008953018
0.01960013799568272,-0.15002340029220704
0.054741102617168656,-0.1372637952647445
0.055544331387671814,-0.13698358799267307
0.05223274097723968,-0.13818597349226772
0.1024759634635105,-0.11991572601920003
0.10761620717277298,-0.11805086186946431
0.1089110720921432,-0.11760697819770938
-0.08276068061039811,-0.12700059123062904
-0.08117405948324503,-0.1278706364388267
-0.07693404382464566,-0.12922296379117362
-0.06125197048004552,-0.1347535869453779
-0.014991240152458375,-0.15112503396304905
0.01983261184221662,-0.1499499420482132
0.05673053015080147,-0.13657454220393067
0.05793024674207413,-0.13615890605726744
0.054029945127928004,-0.13757504317679492
0.052817922332780244,-0.13797879406566205
0.10224719906414931,-0.12002652388632173
0.08408336006688139,-0.1266472127448139
0.08536391203310197,-0.12619818107064162
0.086155416968384,-0.12592601036334677
0.08744739807887839,-0.12550410925905475
0.08272650383315171,-0.12715578179509932
0.07659222088878156,-0.12938304179665291
0.07624417959160777,-0.12950371915816197
0.10948172867880222,-0.11742708408841776
0.35631394072896355,-0.004613377282840364
0.35619223972170305,-0.004743382883613298
0.35936210582653894,-8.396130125306084E-4
0.360223896845261,1.196164530190733E-4
-0.08084073161192781,-0.12808672036550636
-0.0790202988463522,-0.12865645102226433
-0.05919350393724062,-0.13545226503178348
-0.015711630992328397,-0.15088994732698152
-0.01618716107297741,-0.1507580763378825
-0.016116757765088075,-0.15078001966753632
0.02045553618221588,-0.14976537394613212
0.07431735705299601,-0.1302005777731022
0.07409356537445899,-0.13029026364071283
0.06116750314928682,-0.13504591868532778
0.06057122070339496,-0.1352499259213599
0.05879581510164607,-0.13586342317758157
0.05511769884065477,-0.1372425058457285
0.054771941464005214,-0.13734873110755114
0.10289066049944154,-0.11983449909336352
0.10448442443898559,-0.11931823754404174
0.10354050983700834,-0.11962768708727213
0.09754371732833172,-0.12177588861902794
0.09580077660045493,-0.12237825275612525
0.09484212453043572,-0.12273630998422305
0.09512915523700195,-0.12265257748651492
0.0931796875336512,-0.12342280666251315
0.09325715592629165,-0.12339313173581593
0.09317290276159339,-0.123378788489272
0.09344802938034771,-0.12327521281494885
0.09385860416823112,-0.12311929936705913
0.08803109129428034,-0.12533969719731225
0.08245544161921457,-0.12731660878883125
0.08225276159941423,-0.12736230740862103
0.07824084865589839,-0.12882630185200172
0.10990847821283532,-0.11728644175185421
0.1634837956272285,-0.09799012269096727
0.16422383158857584,-0.09767279609285004
0.1661617616974322,-0.09701779605265844
0.1506625247258817,-0.10264394974091336
0.15073920539229255,-0.10261747951881954
0.20264737743759081,-0.08391087211059922
0.20335508977762842,-0.08364454417036928
0.3528940221472072,-0.008647052283018354
0.3513577515905223,-0.01059897531086653
0.35240401295115537,-0.009310168937698628
0.3627719027202447,0.0030639690441803574
-0.07904781189338128,-0.12865160323975344
-0.05742330839658019,-0.13608018236561595
-0.0554021252965079,-0.13691234993074336
-0.0549150548894541,-0.13713529350671452
-0.016616583100925706,-0.15066384293128782
0.02075170207794459,-0.149702775070202
0.020684676886184646,-0.14974458526290713
0.07397431763599499,-0.13039596922711874
0.06263676503049767,-0.1345709592222079
0.05570715694234844,-0.1371220959995016
0.10561717372728537,-0.11896368236171205
0.10002833091689871,-0.12093617381384714
0.09973538559953404,-0.12103459618403015
0.09773446888816793,-0.12170840945689838
0.0931260967578719,-0.12353587757627549
0.08874597413589988,-0.12512623002762707
0.08341545217216095,-0.12706165727559965
0.07895044678352675,-0.12858921634116882
0.1107179682405906,-0.11705493751317264
0.1059828201117205,-0.11886780700683636
