"Plane Section: Position[X] (m)","Plane Section: Position[Y] (m)"
3.5,0.0010078215721194988
3.27,0.0010144448092496122
3.04,0.0010536992953533305
2.8099999999999996,0.0011151555677304137
2.58,0.0012062714645330336
2.35,0.0013454871733470349
2.1200000000000006,0.0015428448633744356
1.8900000000000001,0.0018282617286392955
1.6600000000000001,0.0022020600821807323
1.4300000000000002,0.0028004092858945635
1.2000000000000006,0.003521333331252075
1.1760000000000002,0.003879122677544155
1.1575042253040075,0.003999999999999851
1.1520000000000001,0.004036203324781938
1.1279999999999997,0.004303350633191564
1.104,0.0045667567793913726
1.08,0.004857506398965473
1.056,0.0051565166140909325
1.032,0.005424241846835796
1.008,0.005662424929398864
0.9840000000000001,0.005924904306862356
0.9600000000000001,0.006241901188158466
0.9359999999999999,0.006558669741877982
0.9120000000000001,0.006901755707288195
0.888,0.007275839311877531
0.8640000000000003,0.007713888343798016
0.8400000000000001,0.0082022103931964
0.8160000000000001,0.008722644435432107
0.7920000000000003,0.009330587658852505
0.7680000000000005,0.00999310738613891
0.7440000000000002,0.010730050060770067
0.7200000000000003,0.011617993548074853
0.7099309159103753,0.011999999999999848
0.6960000000000002,0.012527823252066042
0.6720000000000002,0.013693328577196233
0.648,0.014950232361773463
0.6240000000000001,0.016581561185251382
0.6000000000000001,0.018588286285116357
0.589109333082654,0.019999999999999116
0.5760000000000003,0.02175726586370186
0.5520000000000005,0.025204614275210566
0.5402552964908278,0.027999999999998713
0.5280000000000005,0.031343245784248436
0.5126321222061201,0.035999999999997964
0.5040000000000007,0.03839063707597625
0.48000000000000065,0.040952509052040245
0.4560000000000008,0.043742573919413406
-0.45861338080738145,0.0439999999999955
-0.4799999999999998,0.04159085246806528
-0.5412582858250828,0.027999999999997097
-0.5519999999999999,0.02546391132344375
-0.5106738252090552,0.03599999999999657
-0.5279999999999998,0.03120914302291644
-0.5039999999999999,0.037942987503442646
-0.45599999999999963,0.04442369458181723
-0.5891796349340689,0.0199999999999979
-0.6,0.01863794791772224
-0.5759999999999998,0.0216783680269219
-0.6240000000000001,0.016616557811634004
-0.6480000000000001,0.015003158216660994
-0.6720000000000004,0.013698859202798322
-0.7100981210664253,0.011999999999998807
-0.7200000000000003,0.011586831136714573
-0.6960000000000003,0.012588723667153894
-0.7440000000000002,0.010731127402306504
-0.7680000000000001,0.009987886565481366
-0.792,0.009319533729289245
-0.8160000000000002,0.008708261514200864
-0.8400000000000002,0.00818421069687355
-0.8640000000000001,0.0076991099412136174
-0.8880000000000001,0.007270992094540005
-0.9120000000000001,0.006881414622006133
-0.9360000000000002,0.006536392222906206
-0.9600000000000001,0.00622202168550219
-0.9840000000000001,0.005905793065629907
-1.008,0.0056394985715668925
-1.032,0.005394329458028373
-1.056,0.005142188427352503
-1.08,0.004908453885127965
-1.104,0.004646514294881127
-1.1280000000000001,0.004360551401922225
-1.1676593004383997,0.004000000000000085
-1.1760000000000002,0.003943501784118175
-1.1520000000000001,0.0041059084792239775
-1.2000000000000002,0.003531269595730074
-1.43,0.00280241120698382
-1.6600000000000001,0.0022003880915636596
-1.89,0.0018264574455160345
-2.12,0.0015580317432049582
-2.3499999999999996,0.001342680635227215
-2.58,0.0012064530903377916
-2.8100000000000005,0.0011195061770878157
-3.0400000000000005,0.0010499915381823794
-3.27,0.0010132336580388555
-3.5000000000000004,0.0010081588323754018
-0.35787672225550493,0.016618408516168182
-0.3558540814928346,0.012710487057280076
-0.35463283445669963,0.010689089438855277
-0.35340691177425565,0.00880221505796356
-0.3499074439128419,0.004893074159006763
-0.3507309138890535,0.005444231765764908
-0.35853356203296144,0.017378743004427703
-0.34877947995304126,0.0033954288089024635
-0.3484905017850673,0.002938778501123776
-0.346732031016013,9.842008374969175E-4
-0.34682826295457125,0.0010838993363316428
-0.36098004417178897,0.02052722231100149
-0.34499388234828243,-9.703600458442086E-4
-0.36243566814481115,0.022398893683235707
-0.3639382640278598,0.024435916292707086
-0.3448769469079741,-0.0011076759275658295
-0.3432973547742312,-0.0029248865619652025
-0.34122072303424705,-0.0048797269362590495
-0.34292559503233305,-0.0032558597218570774
-0.36633711531206625,0.02821707229716794
-0.36642934668096083,0.028344224551649942
-0.34097401869886385,-0.005132209406109454
-0.33928810388947994,-0.006834448397008072
-0.33766492568229384,-0.008788914347378591
-0.33902253601067056,-0.007121970059624123
-0.3681955170087801,0.03225193423874206
-0.3370712582558238,-0.009359919309233805
-0.3356173760960304,-0.010743730708065332
-0.3333962230105886,-0.012698690415981342
-0.3351196028640582,-0.011140523861176952
-0.3702369819096101,0.03594943123038669
-0.3703831197764459,0.03615999190941934
-0.3331679320893248,-0.012902498595146288
-0.3312161965907901,-0.014586088280583397
-0.33114406160547705,-0.014653675727959822
-0.3719625748547,0.040067547422713665
-0.3007372754394742,-0.03409889705383946
-0.2992816749766022,-0.03462698832743661
-0.32926442259222927,-0.016223051722978263
-0.32881126461472526,-0.016608727622057857
-0.3263950467649368,-0.018563848398108384
-0.32731260841239285,-0.01781135284542595
-0.3727953282338745,0.04397448637230153
-0.30265423618145704,-0.033259594057115954
-0.3010301677272765,-0.033987068240084045
-0.29868187660467327,-0.03486090590389031
-0.30098168129459474,-0.034009314137775415
-0.32127759179785276,-0.022474325295227547
-0.32145696811681496,-0.02233675979770489
-0.3253608066115713,-0.019414645822657776
-0.3239415626023002,-0.02051899994555012
-0.32340894546673854,-0.020946069041617364
-0.37413457441388753,0.04643587596791962
-0.29369875001757206,-0.0367268127025029
-0.2954781840139413,-0.03606453271878897
-0.2915996748205628,-0.037516033836007434
-0.289596839683094,-0.03825575586290591
-0.2857603021079867,-0.039702354857399785
-0.28770293678974623,-0.0389627362938099
-0.28526431557678833,-0.03989755098617304
-0.30282262438851926,-0.03322737996452814
-0.2973787422034788,-0.035354280294173264
-0.31950499845410424,-0.0237367602945441
-0.3185537131245296,-0.024429700111798774
-0.3778693762620271,0.05179117875923317
-0.2838345998366741,-0.04045149177877069
-0.2818833737837698,-0.04120447101859449
-0.2799414494683609,-0.04194604719249176
-0.30334112928392387,-0.033084685542641705
-0.30501176681194636,-0.03241183869306376
-0.3049697760442571,-0.03243483337905233
-0.3175530464418066,-0.025158136683437547
-0.31564870467309947,-0.02638522449018415
-0.3156009620101011,-0.026419143912064104
-0.3136488240048589,-0.027615269849371803
-0.31250242726766636,-0.028340948088231396
-0.381937432623486,0.058115982995018065
-0.2780853249694169,-0.04266966952455378
-0.3050441039373506,-0.03239672324202155
-0.30583989698151687,-0.031945619549011775
-0.3056319161894659,-0.03225287251221134
-0.31169673311065826,-0.028868450556924878
-0.38295730679671286,0.05960788260919554
-0.3879288485787716,0.06742449035506523
-0.38974058695075037,0.06943747083901058
-0.39533003387767474,0.07524310429696195
-0.3975465806995902,0.07732022081229717
-0.40456202225770754,0.08306322996262912
-0.405353769809163,0.08375530546376651
-0.27668611623785194,-0.043238536625112026
-0.30974447673240046,-0.029921218509448292
-0.30909284133699294,-0.030296889104407525
-0.30779226151287487,-0.031023832557106217
-0.4131614886726614,0.08954882111378783
-0.2760761866781352,-0.043480132820094115
-0.2741415581181134,-0.044241702534145416
-0.27235117656710073,-0.04490098420860575
-0.2702500712106759,-0.04570392268475458
-0.26825121979671346,-0.04644764342321972
-0.2644218611252705,-0.04792197238604794
-0.2625046586537011,-0.04868607544359705
-0.26138433130033745,-0.049138372687211745
-0.414869719624082,0.09088424385864698
-0.420969314357392,0.09521296876576402
-0.2586081639394528,-0.050179793738866156
-0.26055656273577454,-0.049455960456199655
-0.25674098562302294,-0.050864054789696925
-0.2663614046454918,-0.047173871798740004
-0.4270581531077733,0.09870681070894244
-0.22953834272449708,-0.060443024046503945
-0.22937259957261563,-0.06049168280507113
-0.2272294414893832,-0.0612011411816446
-0.22521936388270247,-0.061898169050911514
-0.23707010467200224,-0.05785237125618333
-0.2351866668092356,-0.05848296188757164
-0.23905383575232372,-0.057225363785484706
-0.2547043067299921,-0.05160811388639338
-0.25275350238247696,-0.05232535491349734
-0.2509666612800345,-0.052983515335478445
-0.4327253158059543,0.05010370069177936
-0.4318077584129786,0.051835716555522146
-0.43663237825781626,0.04912137744366614
-0.43581883746765926,0.08308903922149387
-0.4366037551853168,0.08378591749848749
-0.42877801181002223,0.09982134460967654
-0.436587689286069,0.10324284365440904
-0.18418613626532426,-0.07663621894730645
-0.1821828611328688,-0.07733591270740346
-0.18441458101121622,-0.07655768399582319
-0.2042948247530458,-0.06944377304965542
-0.20371010884806467,-0.06964170084434747
-0.2154860848010025,-0.06539899674742936
-0.21362258168684387,-0.06607506039787306
-0.22330555555698478,-0.06257457392472363
-0.2213552312114394,-0.06329313036578363
-0.21942533453144544,-0.06400572768835103
-0.2174456312113087,-0.06470571277130391
-0.233137749411696,-0.059202594360369204
-0.23117898042962762,-0.05989800882768991
-0.24885169340091196,-0.05375928809541921
-0.24685109629145596,-0.054490266582183686
-0.24006796613377357,-0.056916834087383524
-0.4444466942566697,0.04692530138130724
-0.4431136856756954,0.04793880071124566
-0.4322605278757836,0.05574234174622203
-0.44053890448913957,0.048788454713289686
-0.42646590764982417,0.06745631102927135
-0.42879927578089116,0.07406919064614746
-0.42923725711158395,0.07527110204069101
-0.44441087331503415,0.0903069637101784
-0.44522119327168597,0.09090930556230464
-0.4522189065115382,0.09571980013081755
-0.4421876125709663,0.10653180601206372
-0.16160656580322996,-0.08478678909035248
-0.16068223339971138,-0.08510306245101384
-0.12915310210992756,-0.09652516499156903
-0.12945200108768545,-0.09641309835777408
-0.17763708630183037,-0.07903082988983859
-0.17832346493626683,-0.07875982986569766
-0.1802692951766795,-0.07802895762363474
-0.1900472167572216,-0.07450824844377324
-0.18810154200571147,-0.07523954679299619
-0.18632589285287954,-0.07589519222404259
-0.20179651619246045,-0.07032667858685443
-0.19984237096127233,-0.07103476414088145
-0.19790805926014832,-0.07172687102384492
-0.19396311203872102,-0.07311291784486623
-0.19209461016507368,-0.07376607966154111
-0.2096286054631386,-0.0675368359778775
-0.20784559579140807,-0.06818349719187577
-0.2057170484331563,-0.06894405527114707
-0.21158084347451042,-0.06682352381278112
-0.24494673823874719,-0.05518459937538076
-0.24299252044340178,-0.055892486072053923
-0.24105003201387182,-0.05657894615632836
-0.44792554173205823,0.04403652260715657
-0.4288106085933426,0.06034436319838596
-0.4296210880664141,0.05964641364963097
-0.45815159269871614,0.09873248506591242
-0.46002664128096404,0.10149405259228846
-0.45220848150440274,0.10834521193459687
-0.46558081295543974,0.10655112215672657
-0.15876730554504642,-0.08580038161736432
-0.15806217366154804,-0.08608015769451376
-0.16269241523784111,-0.08443030250956994
-0.12987901829567727,-0.09626027409734342
-0.12761152294979247,-0.0971151543866921
-0.1764104948724455,-0.07950200842032155
-0.17443815120519873,-0.08023896720213809
-0.1724858869279358,-0.08095220738729608
-0.17064242026818865,-0.08166472568323324
-0.19592478069297967,-0.07242544973939628
-0.4483554266732036,0.04392053426400733
-0.14499946650581982,-0.09082120915894046
-0.1470559914474303,-0.09008604780608485
-0.14751238129498576,-0.08992983619560324
-0.15033563376966175,-0.08899328329266964
-0.14912681560144173,-0.08938953815631248
-0.1570845549436823,-0.08653056404225315
-0.16889199299352076,-0.0823624652444271
-0.1638191138960522,-0.08407308564717889
-0.12710536293872945,-0.09731402664581146
-0.13344921123496511,-0.09499912076410287
-0.13340196049086137,-0.09501547658339395
-0.1314087200073201,-0.09571206582851856
-0.1079097110898621,-0.10427699771573876
-0.10612141494157758,-0.10490973432077673
-0.45226324258912676,0.042025713400481876
-0.14451285173655393,-0.09102438138220725
-0.15100691011158585,-0.08878669649523288
-0.15686048162223817,-0.08663814812003914
-0.15496962080317644,-0.08743247898774865
-0.16861637806170504,-0.08247465692147238
-0.16596411849599801,-0.08343086309676816
-0.16477383857601063,-0.08379848624862923
-0.16656971431979237,-0.08324461151142076
-0.12563474589804408,-0.09791310825592042
-0.13534336583389556,-0.09436811987124352
-0.13541073714086393,-0.09434579413194186
-0.1049754139930966,-0.10534773921062154
-0.10797595635580957,-0.1042556226513292
-0.45545765778247993,0.040136490665818605
-0.4561716085955445,0.03946469452356415
-0.14462210491579608,-0.09107818206885378
-0.1447029959793507,-0.09102243748806949
-0.15298341823755454,-0.08813989499082614
-0.1088113345351838,-0.10398962038232074
-0.1255843168579484,-0.09794054818889857
-0.13687009486349208,-0.09390693408611689
-0.10599284547656722,-0.10501810287348191
-0.10614305001218159,-0.1049690238158497
-0.10715303418404304,-0.10465718868677752
-0.4600804607495731,0.03631491693801507
-0.14401196237341063,-0.0914413281885256
-0.14333558406993843,-0.09173751922037358
-0.14131251755890883,-0.09253631150937439
-0.11059150366112414,-0.10340247185799144
-0.1099522167774895,-0.10360814232952194
-0.12495284428822738,-0.09825560576966022
-0.1385633702745986,-0.0934295500544367
-0.13734125011995055,-0.09377989833460684
-0.1393118739444316,-0.09322719116752291
-0.10740788112851983,-0.10465786139059027
-0.1070688751065025,-0.10475533961522115
-0.46032365491676663,0.0362342572668824
-0.11253898565804066,-0.10278549252228927
-0.1119683415778332,-0.1029657816340472
-0.12409864575029017,-0.09870780929315781
-0.11778197535410517,-0.10095202358580899
-0.11977210255351527,-0.10028658921126858
-0.09827234506673196,-0.10797997432168048
-0.09627953529798086,-0.10867624448821804
-0.10715521468965691,-0.1048905624718622
-0.09863660318646283,-0.10785854998687167
-0.46398725005320635,0.03566339525960167
-0.46484119051241285,0.03623798746923504
-0.4678909732809078,0.03872510569816879
-0.11587575121250956,-0.10165132276981899
-0.11391960874039753,-0.10235393501579929
-0.12362209728640719,-0.0989263702016191
-0.11979968998842612,-0.10027803484095059
-0.09435369568842153,-0.10936775749851006
-0.09300323972439581,-0.10991419596122678
-0.10691793409472894,-0.10518790001137909
-0.10035263726334412,-0.10732390205337211
-0.47179442866128973,0.042111197937201826
-0.46921971566270027,0.04014785422003507
-0.12187770002074999,-0.09962275960974547
-0.0924327788628009,-0.11016690332335788
-0.10639122216007627,-0.10564912334549889
-0.10093175649128577,-0.10716153733053649
-0.06705603601426491,-0.11928880857549913
-0.06700466654738468,-0.11930563038938068
-0.06697726757262958,-0.11931755162235631
-0.0650785091109319,-0.12009041466319681
-0.06494551649843885,-0.12015261678880404
0.005980936999277356,-0.14193087624555512
0.0064223861570731275,-0.14177118898808033
-0.0026342881009469264,-0.1426238683609446
-0.004264252975505426,-0.14203099385619183
-0.004559475313538088,-0.14192380908501567
-0.006437111718913707,-0.1412409659205976
-8.802091825780834E-4,-0.14326276765090282
7.084364443335986E-4,-0.14384375852556214
-0.010309473525541481,-0.1398314400168582
-0.010773197550220031,-0.13966406664987574
-0.008379017475848587,-0.14053355957358094
-0.47570040235496214,0.042447436875574805
-0.09112823316846179,-0.11073889806517331
-0.08659836806436062,-0.11236796037639046
-0.08738135078780035,-0.11210615649509235
-0.08474181474799349,-0.11300709857006302
-0.08269930677787449,-0.11380942343692146
-0.08265915756985714,-0.11382931132860058
-0.10593462745201646,-0.10586284290548059
-0.102010376581396,-0.10697869531763665
-0.10222820209244217,-0.1069862349735381
-0.10348156158954384,-0.10675798041951336
-0.06926417067436075,-0.11857671561870901
-0.06901915569150772,-0.11864174300404923
-0.06327428244558993,-0.12086343345901013
0.012227295014485808,-0.1396843472383762
0.011737249125788746,-0.13986019473956318
0.007861106042174826,-0.14125306757919148
0.009391759696448117,-0.1407014195328209
0.0040545553495791075,-0.14262937100965892
0.002849247226571161,-0.14306836495498249
0.0019317210924811822,-0.14340145943381521
-0.012284896950981929,-0.13912156608758053
-0.012575977701374653,-0.1390185568977077
-0.4796074745792711,0.041453278495007455
-0.0905569608889547,-0.1109770041734188
-0.08856966429041822,-0.11170687600136989
-0.08139710701392096,-0.11450059318384666
-0.10439611324559693,-0.1065718822326771
-0.07079043465288651,-0.11816027499701645
-0.0612496271176386,-0.12164176926488779
0.01371429818428285,-0.13915585839181702
0.014786723983732458,-0.1387736750476725
0.009804328511522423,-0.14055360570825604
0.0022992354463959525,-0.14326941501196655
-0.013809079557764612,-0.13858709338170175
0.017547948540673736,-0.13779671631527454
0.017711983271538317,-0.1377394390750598
0.10447410687697631,-0.10624171571649309
0.10349724039582212,-0.10658178343137636
-0.48351462657669125,0.04036250932450766
-0.08076966745100063,-0.11486895149832302
-0.07344924837397164,-0.11740081145098655
-0.07299359366542887,-0.11752801519790046
-0.07619920786120796,-0.11671346456154354
-0.07499213396161222,-0.11702767458734252
-0.07099112326635582,-0.11810366879196252
-0.06122353092000372,-0.12165268456208828
0.01577781865017805,-0.13842621352461437
-0.01435394577848522,-0.1384067590700866
0.01956139265273364,-0.1371096430898786
0.05473944738183798,-0.12433251053020176
0.05519983508651389,-0.12417162642831683
0.052803064988386696,-0.12501114541672692
0.05085677879590399,-0.12574086470853924
0.05079350208867529,-0.12577128134715176
0.10173332920713807,-0.10722543744261787
0.10555849343867604,-0.10587533936015625
0.10094824536166652,-0.10752172830718901
0.09191883044984903,-0.11082709145804831
0.09383506770927139,-0.11012774846041343
0.1058896080534532,-0.10576944377426456
0.3563042571010787,0.009900927391109333
0.35491191545636125,0.008217344723215838
0.3514245134249819,0.004313972995960894
0.35239396432649067,0.0050064576657815624
0.3600924759724684,0.016025569713699967
0.35795342966276045,0.012121084627274464
-0.4913274799703855,0.03993775022238554
-0.0797402328391465,-0.11542132465435878
-0.06017041058556659,-0.12224633395770287
-0.07705709786174122,-0.11653719716974378
-0.014612942755134709,-0.13832151260338132
0.01960592637437053,-0.13711261954476364
0.07313602099623452,-0.11766015577242123
0.07234736351036397,-0.11793827384957795
0.07163744581303197,-0.11820419163267265
0.056730086999271616,-0.1236466001230501
0.05879237909408691,-0.12292724169552
0.052301739292805016,-0.12528614549869638
0.05086014768306859,-0.12575014448380611
0.10020315313885743,-0.10783382828157113
0.09497857692120189,-0.10973053446549108
0.09123457093639192,-0.11108974122373041
0.08204160251136036,-0.11447280868968222
0.08287591566833248,-0.11418663675702515
0.10671415397183197,-0.10553251207395696
0.1474954061780436,-0.09082108484588076
0.1465334492067378,-0.09114384331799673
0.350439310834717,0.003156153719612369
0.3498963688605837,0.0023621091438711015
0.34819067953499777,4.1039189338102575E-4
0.3484841807707877,7.286876009728938E-4
0.3602157054731042,0.01619490630476953
-0.07910802733006822,-0.11579360802665647
-0.058883180213191805,-0.12271605155196894
-0.05746779984043046,-0.12317915090942388
-0.059252515204002515,-0.12259102208305128
-0.055405046347541315,-0.12389738639510031
-0.0534542042727072,-0.12469253421048278
-0.0533879400050342,-0.12472129557504684
-0.015012569799524068,-0.13821731657757402
-0.0429091333639102,-0.12886119976228583
-0.04379581358343035,-0.12846279979756514
0.01993423376266725,-0.137036696231584
0.07431034017241561,-0.11725452932602755
0.07575126531098948,-0.11677313714059592
0.07116760614220285,-0.118437167739094
0.05889745610705817,-0.12289166672228186
