"Plane Section: Position[X] (m)","Plane Section: Position[Y] (m)"
3.5,4.7276137505001593E-4
3.2699999999999996,4.746800392901036E-4
3.04,4.908452927142776E-4
2.8099999999999996,5.173839134810195E-4
2.58,5.629439861842243E-4
2.3499999999999996,6.230147587060718E-4
2.1200000000000006,7.057097629555795E-4
1.8900000000000003,8.405498920988484E-4
1.6600000000000006,0.0010119462022525347
1.4300000000000002,0.0012945453322455607
1.2000000000000004,0.0015979830912903408
1.1760000000000002,0.0017500886901159153
1.1520000000000001,0.001800705117359087
1.128,0.0018450833539452147
1.1040000000000003,0.0019259285719682624
1.08,0.002014327432819241
1.056,0.002106499813663288
1.032,0.0022013831755269527
1.008,0.0022937687588590336
0.984,0.002396284457143153
0.96,0.0025017241209144047
0.9359999999999999,0.002614194192291282
0.912,0.0027438933046533176
0.8879999999999998,0.002884890257854453
0.8640000000000001,0.0030459587031594366
0.8399999999999999,0.003226090387947823
0.816,0.0034358104467419
0.7920000000000003,0.0036746394236373964
0.7680000000000006,0.003944260425192981
0.7636185709567389,0.004000000000000375
0.7440000000000004,0.004247577033199501
0.7200000000000003,0.00459838899933323
0.6960000000000004,0.00494134391099332
0.6720000000000003,0.005353680487331865
0.6480000000000002,0.005784257399686502
0.6240000000000001,0.006380444207118637
0.6000000000000001,0.007055541834280835
0.5760000000000001,0.00809837910699164
0.552,0.00929020940537918
0.528,0.011759082055142901
0.526981371925868,0.011999999999999872
0.5040000000000002,0.016571785478571105
0.48000000000000054,0.01954950171643219
0.45600000000000007,0.015843612568213008
-0.48,0.01923219436772973
-0.45599999999999996,0.015788435885231485
-0.5040000000000001,0.01656114476562979
-0.5280465486180113,0.01199999999999838
-0.552,0.00946101662102063
-0.5280000000000004,0.012006299119407043
-0.5760000000000003,0.008052870439119404
-0.6000000000000002,0.00707171101034901
-0.6240000000000001,0.006374213574385555
-0.6480000000000001,0.005821349454955777
-0.672,0.0053569585153247345
-0.6960000000000003,0.00495774773210517
-0.7200000000000002,0.0045910642326189785
-0.7640964580390884,0.003999999999999271
-0.768,0.003949343898721021
-0.7440000000000001,0.004258497723032032
-0.792,0.0036773296926601003
-0.8160000000000002,0.0034369080110458715
-0.8400000000000001,0.00323619441895055
-0.8640000000000001,0.0030493661653804597
-0.888,0.0028889597053326694
-0.9120000000000001,0.0027480956526366755
-0.936,0.0026157452280264233
-0.96,0.0024954729462122443
-0.984,0.002392562566924476
-1.008,0.0022896831494570013
-1.032,0.0021996616039079084
-1.056,0.002111267988416798
-1.08,0.002026635068626507
-1.104,0.0019513802863659522
-1.1280000000000001,0.0018734141530098974
-1.1520000000000001,0.0018110561611155867
-1.1760000000000002,0.0017432346905427098
-1.2000000000000002,0.0015852950797880325
-1.43,0.0012995962245410714
-1.6599999999999997,0.0010133035407709058
-1.89,8.418278212823063E-4
-2.12,7.274552874290797E-4
-2.35,6.187487161442637E-4
-2.58,5.58638724427746E-4
-2.8099999999999996,5.269692224149661E-4
-3.04,4.895694160768236E-4
-3.27,4.709424520907298E-4
-3.5,4.713318568131899E-4
-0.3553655044469581,0.03782733579095916
-0.3566133132517679,0.03842062073954357
-0.3647921356499656,0.04174241616439527
-0.3663753244779262,0.04228373085239883
-0.3624703781422913,0.04088993924326405
-0.36051797444318534,0.040118869571725176
-0.3597496049502209,0.03978456764607675
-0.3585656276162957,0.03928707568294254
-0.3546610535866681,0.03749576153770085
-0.3527088391670212,0.036522592384163624
-0.35148810694455984,0.035870578496521976
-0.35075668369320245,0.03548648495898063
-0.34880457109310203,0.03440459994858058
-0.34797552778274937,0.03391416287847464
-0.34685251708904075,0.03326015014996993
-0.3449005150875243,0.03206017563961884
-0.34474465645777747,0.03195801109833894
-0.34175675907623126,0.030002086879303662
-0.3429485617230138,0.030808269917124945
-0.33893238006930526,0.028046315805977114
-0.33904481887195376,0.028129480939539132
-0.3710327406824816,0.04370138675814755
-0.3722330611117176,0.04403580848592767
-0.37028044474619803,0.04349180925503521
-0.36832786962967057,0.04290376721627343
-0.3644228249077721,0.04161502563572542
-0.34099666556335095,0.029495284821533914
-0.33709301643989453,0.026716420008172585
-0.33627080948672655,0.0260906972134432
-0.33371558585312994,0.024135178221819542
-0.3351412652584646,0.02524863721832371
-0.3026153580166774,0.0036148096077349996
-0.3015951571211458,0.0032029082978931914
-0.30093545679396905,0.0029237941456765077
-0.2992516254924177,0.002312045073241927
-0.33318955843001946,0.023733497362858635
-0.3312392053836931,0.022179733072016917
-0.38199683663774175,0.04601512157231447
-0.38004397415025437,0.045733914312457026
-0.37964079781924526,0.04566257462653508
-0.37418573486972184,0.04451852800829903
-0.2936660808757858,2.5690316505941617E-4
-0.2954468861450914,9.119823042264591E-4
-0.29156391204897714,-5.230126743395855E-4
-0.28956213792840874,-0.001265529170909515
-0.30281927415375054,0.003682032114622217
-0.297346701727323,0.0016121955595101438
-0.3312378887293757,0.022178715019132416
-0.3292862385303919,0.020603110171666553
-0.3288397513999335,0.020224359968919435
-0.3264769409769782,0.018269021184929776
-0.3273346131904547,0.01900096255141714
-0.385902729562278,0.04639821118994518
-0.38394975181827073,0.04624006685651804
-0.37809119090657206,0.045368096014170044
-0.3761384471353657,0.044960131732205234
-0.2879742762177267,-0.0018548165749194723
-0.2876668899250827,-0.0019688099937515044
-0.28571765542555305,-0.0026903379683319924
-0.28378026573079795,-0.003407443133298437
-0.2818189704414554,-0.0041328253821747915
-0.2798694086485519,-0.0048534687800224005
-0.3031121695527813,0.0037663062776614785
-0.32538300288688204,0.017382760138412962
-0.3241266379078286,0.01631369411490747
-0.321762339440832,0.014358353937269053
-0.32343139776919877,0.015759020608273226
-0.38785578898504863,0.04646914460697289
-0.2780012215109252,-0.005544031587282353
-0.3036219825220967,0.003930267347646678
-0.3214797884782311,0.014139737006454598
-0.3195281526037113,0.01254883748465859
-0.319363161298096,0.01240298109252199
-0.38980896687243016,0.04641358974097735
-0.2759710769780187,-0.006296925020894293
-0.2722341113018832,-0.007685005612621556
-0.27402287334252484,-0.0070212890794200435
-0.27143530977034946,-0.00798572745710531
-0.3043810976194994,0.004192641681927965
-0.30500375425992127,0.0044207708196009245
-0.304845370213446,0.004369363730791859
-0.317576375744675,0.011108471447836207
-0.31673949633118875,0.010447398001077331
-0.3156244347474585,0.009843360782086906
-0.31367240604611557,0.008671894497158735
-0.3134222976392479,0.008491165369705105
-0.39330262798514987,0.045675369829256914
-0.3917623381998914,0.046151492956413576
-0.25844244183415155,-0.01283044026198229
-0.26038910333553994,-0.012101851540163574
-0.2565831349985787,-0.013536264317556203
-0.27012816352257896,-0.00847466734923225
-0.2681298831494906,-0.009219948136176263
-0.26428521073960176,-0.010652301940156563
-0.2623518188941693,-0.011372034793217464
-0.3050575043152143,0.004440106108663458
-0.3058635839664202,0.004741207823991246
-0.3057560367178561,0.004577733698826028
-0.31172021845649106,0.007670078096264186
-0.3940261623672811,0.04372292161021568
-0.39371671394949803,0.04481694386314938
-0.2558300700128295,-0.013822634724296998
-0.26623315214055976,-0.009927219492304497
-0.30976801247240093,0.006687902030784395
-0.30951892229588757,0.006534383745312592
-0.3078158170212337,0.005694479646159583
-0.39371819089422155,0.043239964706831245
-0.39294879698930696,0.04176878673008209
-0.254556088084776,-0.014306709916271254
-0.2526107618108705,-0.01503895648249283
-0.2508250973163435,-0.015700338383769843
-0.3917677182323416,0.04040706739236273
-0.39133703628995486,0.039814151353568306
-0.3895507368006378,0.037859352509986816
-0.3898166710500282,0.03818760315758034
-0.3877819529724452,0.03590457007100387
-0.3878655868493042,0.0360076646007125
-0.24872052329188576,-0.01650458384326574
-0.24672833048653128,-0.017258585599661556
-0.38614199125703513,0.03394990828237816
-0.38470929678903765,0.031995440613172145
-0.38591466294041943,0.03365657754587366
-0.23707490924809904,-0.020970231308145078
-0.2352279195336459,-0.02170068858286087
-0.24483309098641232,-0.01797789880221524
-0.24289238316042625,-0.018722797567276923
-0.24099561117883023,-0.019448436562185832
-0.23901297805598193,-0.020218102975364204
-0.3839642568235723,0.030752628063298173
-0.3835560208764858,0.03004123463782073
-0.23320496610349428,-0.022491457674862866
-0.23126490287787577,-0.023238122317176313
-0.2294894362790939,-0.023916505563290856
-0.2273830799404106,-0.024726804092210727
-0.22713630405258897,-0.024823658092128994
-0.2409681049675155,-0.019459151269021514
-0.3827126388531412,0.028087318898498158
-0.22540271888082267,-0.02550525130073251
-0.38222760659143706,0.026133738777303288
-0.18430832496372623,-0.04007580884756465
-0.18230960618673414,-0.04078799425192739
-0.18720033203042258,-0.03908539362076639
-0.18644792678394784,-0.03933434601862674
-0.21571609131513886,-0.02913389607255363
-0.21385558318367737,-0.029818165684451725
-0.22350897211014115,-0.0262366213379401
-0.22156273439126198,-0.026966371008378703
-0.2196336485853725,-0.027681187209581806
-0.21766458904170186,-0.028410337673983883
-0.3821158361914335,0.02418050824037026
-0.17651825008883704,-0.042902049438680645
-0.17844344486058314,-0.042193373730950834
-0.17259074893715576,-0.0443443170712843
-0.1745414610980955,-0.04362682509690142
-0.17073189784345563,-0.045014677781584446
-0.18039589627176722,-0.041480646417872004
-0.1902000734478194,-0.0380318496657574
-0.18824034906188858,-0.03872465272625327
-0.19415908852725447,-0.036754635108619274
-0.19226137298247484,-0.03732777506170755
-0.2098528869285639,-0.03125605156725421
-0.20806860905600494,-0.03189923979516014
-0.20594477632640784,-0.032672718507914644
-0.20394735501963904,-0.033396449899085724
-0.21180944273382235,-0.030554568206889572
-0.38239951378960496,0.02222764806651744
-0.16867487654390637,-0.045739720651107166
-0.16661858479294336,-0.04648329241135618
-0.1628287986794978,-0.047908794107955135
-0.16083900816698185,-0.04863743440471866
-0.20203479516563094,-0.03408426106912036
-0.20007959731136093,-0.034789464524693406
-0.1981440884180361,-0.03547829591748955
-0.1956747125635066,-0.036308121614690575
-0.38313418684970935,0.020275210279595952
-0.15109995910631147,-0.0521464459413041
-0.14925483936274136,-0.052845125985131344
-0.15891881519793224,-0.04932033031137402
-0.1569602498644756,-0.05001630858627559
-0.1550325112173328,-0.05070958130571899
-0.16486167325090267,-0.04714394009105963
-0.19615170916598643,-0.03615195105354044
-0.3844349566755667,0.01832330267952253
-0.3839752467291172,0.019018369031850776
-0.1451675283706887,-0.05438650371170815
-0.14720648032595104,-0.053603196633619475
-0.14137285090964244,-0.055806372508410446
-0.14236837597553578,-0.055450457801815886
-0.1530486546570391,-0.05142342948036879
-0.13936432854673994,-0.056475680334242356
-0.38593032567528807,0.01693299540484345
-0.1440906698224625,-0.054821766755881185
-0.14342268987360213,-0.05508094148033679
-0.12727038304270177,-0.06096169677270599
-0.12572633510647505,-0.06143448632619437
-0.13743241515704663,-0.057134484973760336
-0.13548454762680529,-0.05785976978978741
-0.133587300854079,-0.05862811711408679
-0.12969729581017225,-0.06018999670533453
-0.12782408548520166,-0.060802373972066656
-0.38656102886767657,0.01637216802941523
-0.12365619429504038,-0.06212457712419657
-0.13313993635659227,-0.05881912649139445
-0.13163697305831756,-0.059442274680998906
-0.10808647614087559,-0.06796442195623215
-0.1081819276416853,-0.06792479342795428
-0.38788471366977384,0.015585372078664764
-0.11164132996640633,-0.06666678928239496
-0.1101233621337659,-0.06718188535845909
-0.12190306089143083,-0.06279701581501951
-0.11994434599223432,-0.06363592910771439
-0.11793553986322003,-0.06447754284332749
-0.11989947319064398,-0.06365620171106326
-0.10636259563091846,-0.06867536786425121
-0.005509638206963121,-0.10480055912001561
-0.00459682230582907,-0.10513139850397266
-4.152766761859525E-5,-0.10678836668298197
-6.977741817808157E-4,-0.10654881620919393
-0.38983880202122445,0.014557686814463141
-0.11602606943564919,-0.06516794776500447
-0.11406278901565951,-0.06585100910038368
-0.11212996726150382,-0.06651341721860486
-0.09463570590389095,-0.07287437319599593
-0.0945140641187483,-0.07291195699102139
-0.0984725056454949,-0.07163317119118177
-0.09647170724194389,-0.07230756598738798
-0.09255517486369275,-0.0736070478854931
-0.10430651654909652,-0.06943104039760033
-0.10226853418469059,-0.07020144639850351
-0.1005180934056702,-0.070881995083736
-0.0026712385512447107,-0.10583081640837973
-0.006476146163977483,-0.10445306485083944
-9.167699699052242E-4,-0.1064696594111756
6.724751982917824E-4,-0.10705053230147321
-0.007822681944610565,-0.10396856126441678
0.2969837984199067,3.847765854894386E-4
0.29520084853892525,-2.65401400087315E-4
-0.3901237228810644,0.014422378870138888
-0.0921657327988368,-0.07377599052317498
-0.06521989524253022,-0.08358260072784507
-0.06338540799743146,-0.08427268614113098
0.004020049917242848,-0.10583769983113338
0.005910948020712529,-0.10515612507923852
0.0059478941993818864,-0.10514294649752201
0.007322369063701364,-0.10465623327087104
0.0022637216924477057,-0.10647512916428853
-0.009521582248933309,-0.1033669126195885
-0.008420775662024753,-0.10375299139776392
0.29309383779392045,-0.0010321403352016576
0.29108763473675026,-0.0017623589727219489
0.27951999037931763,-0.0060225889227657455
0.2813914251558465,-0.005340920315049219
0.27908119483818805,-0.006182483592767923
0.29888809946971595,0.0010800197638637554
-0.3964846180179987,0.012475210410327044
-0.39569993291606825,0.01268560785904728
-0.39374628533693345,0.01324266702613942
-0.3917926004645609,0.013839545321831223
-0.09068855813966556,-0.07444231737394007
-0.08821897067050893,-0.07553282353377672
-0.08875181491572637,-0.07531067835441879
-0.08288481396431409,-0.07742243319195138
-0.08444584419505025,-0.0769101325420642
-0.08084609762251779,-0.07818303780893657
-0.07677391916524255,-0.07971062479253335
-0.07505835060282162,-0.08031376580238866
-0.0713722606350979,-0.08136625729827199
-0.07107810423785144,-0.08144676040119878
-0.06914110873742228,-0.0820806954718371
-0.06715474731630383,-0.08282166017926523
-0.06132170655736685,-0.08502644867593402
0.007832887517111899,-0.10447844758051462
0.008647804143920385,-0.10419371009656972
-0.01051871018125157,-0.10303068432198381
-0.010362364551980394,-0.10308132217363086
0.2774993174137704,-0.006801653439706233
0.27555559949955605,-0.007538456741151445
0.27376607843439665,-0.008200147102241524
0.30079327460308336,0.0017755563258306608
0.29077323838091507,-0.0018769193938334963
0.2872494123579146,-0.0032044529669579313
0.28919733567704475,-0.002479264886553429
0.2853089252255563,-0.003913083126290426
0.28334433467543824,-0.004629444522018742
-0.4015601967201575,0.011739348301401303
-0.3996068744853354,0.011949027355399945
-0.397653468573021,0.012248051443450234
-0.08683038441277484,-0.07610838718235836
-0.08497050538228512,-0.07673842628535722
-0.07920660773671982,-0.07882261748462795
-0.06080529044381036,-0.08522353145262784
-0.07308858704551768,-0.08089300960632362
-0.07705344773654021,-0.07963180905253582
0.00978523955435378,-0.10380389107684362
0.010364385657427082,-0.10359848119399355
0.013172154589179858,-0.10262111732446512
0.011727018214329704,-0.10313466178548429
-0.011165252620613266,-0.10283630794967566
0.27208983110154894,-0.00881332685458048
0.30248690115090454,0.002382533655822453
-0.4054665985543273,0.011579059503717903
-0.40351344603553946,0.011607527551152748
-0.40937272650149803,0.01171120825866397
-0.40741968465677525,0.011621506216607286
-0.07909629870519629,-0.07886608742938035
-0.05750969250394825,-0.08639868099838266
-0.058604281156035914,-0.08602696858602124
-0.059291829035535884,-0.08580346828033836
-0.05543483572668764,-0.08708377014781939
-0.05346700416675456,-0.08783235016155413
-0.0524162216337141,-0.08828580358120122
-0.04383960835944946,-0.09168745148555543
-0.04201027801254086,-0.09238209059909387
0.013706537153375468,-0.10243703336765847
0.013995244901795083,-0.1023848148109665
-0.011818754239329595,-0.10266020716509049
0.27166893348750737,-0.009014184576418923
0.27063642890453354,-0.009481192588667165
0.2658566506014013,-0.011276593207745739
0.26394110117982905,-0.01204557367610815
0.26267783017402035,-0.012580064731096473
0.2600526064309648,-0.01356170365581124
0.26199953671022497,-0.0128337520401737
0.25819214441365085,-0.014264494706389325
0.3029000038410911,0.0025413683940353534
-0.4210901721832124,0.01310935647924926
-0.4191371471148168,0.013001741840521332
-0.417184251025865,0.012756411887417966
-0.415888487356998,0.012493383410483016
-0.41327866766244403,0.012042794388581923
-0.41132572823040153,0.011843743188062437
-0.05157877147283352,-0.08864301761801313
-0.04965254942494081,-0.08942760004926634
-0.047765414767196306,-0.09018956977467726
-0.045784982476936395,-0.09095533598643463
-0.039937099580553394,-0.09311946457350065
-0.039096163812299786,-0.09346418227267876
0.015490587843748335,-0.10193574770330768
-0.01237407088850767,-0.10255117081980802
0.01763649301043397,-0.10129738894422957
0.01762143183154781,-0.10130174831764882
0.08810843992206761,-0.07592873419395456
0.08625471652012731,-0.07657549316199617
0.1917314304280312,-0.03854783241173751
0.18976669042643804,-0.03922670926035848
0.18800662957653694,-0.03992535431564067
0.19387604639351663,-0.03786484336611828
0.1938077619543863,-0.037885416784217606
0.18589686893112836,-0.040748852234533055
0.18548880119646333,-0.04090865817654407
0.2696961724274146,-0.009829876640345896
0.26779977111155195,-0.010538143756786317
0.2561649528172063,-0.015034710150329925
0.25422316243205184,-0.015776824766503644
0.2524494548449018,-0.01647121307226943
0.23871063004849308,-0.021773786057399665
0.24065252408145074,-0.0210319570432254
0.2368531241178773,-0.022475566186468572
0.3571613345533885,0.037160007531209543
0.358230038579312,0.0376607393324444
0.3041770995562034,0.00303102779555708
-0.42694938670292004,0.013283449999762364
-0.4249963208237617,0.013219410262527476
-0.42304324574257834,0.01316519582173985
-0.41523148886809247,0.012368079534835737
-0.03419669951327398,-0.09557804145882384
-0.03226832783984801,-0.09642663671053539
-0.037930184758204415,-0.09395158302708909
0.015818278996295496,-0.10184025411601258
-0.013005656688767513,-0.10246112963938135
-0.01240322433120852,-0.10255069265573821
0.019050613451364544,-0.10099480796115458
0.06660678698468883,-0.08370082715677744
0.0685586027886067,-0.08298633762548736
0.06475720608567853,-0.0843494374488371
0.06063008126206449,-0.08578799454756153
0.06267494030118267,-0.0850520594561576
0.05682325344497707,-0.0872058902771703
0.05886341210402723,-0.08642555198953349
0.05596396206919112,-0.08759858612595908
0.08834506751432551,-0.0758471604770881
0.08419533200147111,-0.0773316012356885
0.0821337149944914,-0.07802919879855041
0.07634246271163377,-0.08015039268308066
0.07830104605399951,-0.07936805007619843
0.12135718292190803,-0.0639694401809992
0.12339650272249095,-0.0632080437962681
0.11935062174361982,-0.06467386973331991
0.16440271315185015,-0.04854160364896859
0.16240926032373446,-0.04926017520302896
0.16644078776090734,-0.04779094963427574
0.14087412039219438,-0.05693193651903295
0.14285696411356014,-0.05619218961473131
0.15077292112100998,-0.053324066645091525
0.15263186920621383,-0.05266335077108819
0.14665654979137718,-0.05478564565306956
0.14871254925158964,-0.054049100526161686
0.14489368537675223,-0.05543071924915076
0.19568090177767716,-0.03724516495625414
0.17026153428437676,-0.04640743135727156
0.1706904800188092,-0.046279116308130544
0.16820173110904596,-0.04714130231063987
0.18391014257404265,-0.04149400391903061
0.17812487835619867,-0.04362487716279388
0.18004890927035802,-0.042912953358707255
