"Plane Section: Position[X] (m)","Plane Section: Position[Y] (m)"
3.5,4.557201825679076E-4
3.2700000000000005,4.574784189627704E-4
3.0399999999999996,4.728954507392159E-4
2.8100000000000005,4.983231953578756E-4
2.58,5.424216350068851E-4
2.3499999999999996,5.99921264459754E-4
2.1200000000000006,6.789110355073656E-4
1.8900000000000001,8.087004835459833E-4
1.6600000000000001,9.725826190681688E-4
1.4300000000000002,0.0012434930318382424
1.2000000000000006,0.001533806741393107
1.1760000000000002,0.0016789297882189246
1.1520000000000001,0.0017271953624709414
1.1280000000000001,0.0017689775836542626
1.104,0.001847175010241246
1.0800000000000003,0.0019329282977516076
1.056,0.002021865716636289
1.032,0.002113365047596694
1.008,0.0022022996788910454
0.984,0.0023005757121800485
0.96,0.0024015702414840667
0.9359999999999999,0.002508762826104982
0.9120000000000001,0.0026309275160793615
0.8879999999999999,0.0027635101098820647
0.8640000000000001,0.002914662464868387
0.8399999999999999,0.00308180117198187
0.8159999999999998,0.003276448605884817
0.7920000000000003,0.0034994734852170127
0.7680000000000007,0.0037505814530939137
0.7471087180358167,0.004000000000000373
0.7440000000000004,0.00403769029246552
0.7200000000000003,0.004378242500620409
0.6960000000000004,0.004711119687266474
0.6720000000000004,0.005106732611167855
0.6480000000000002,0.0055168536467186564
0.6240000000000001,0.006085397451326642
0.6000000000000002,0.006726830486159804
0.5760000000000001,0.007720226280485251
0.552,0.008845774861301583
0.528,0.011145349234121138
0.5242171562749205,0.011999999999999867
0.5040000000000002,0.01598444534963523
0.4800000000000005,0.018889768633724203
0.45600000000000007,0.015639953849711438
-0.4800000000000001,0.01861746772735091
-0.45599999999999996,0.015569241357017264
-0.524950475827463,0.011999999999998377
-0.5280000000000004,0.011358565070086707
-0.5040000000000002,0.015972174953283187
-0.552,0.00901205845676298
-0.5760000000000002,0.007675314356047679
-0.6000000000000002,0.0067431533063340285
-0.6240000000000001,0.006078538738179398
-0.6480000000000001,0.005554449658910489
-0.6720000000000002,0.005110875767830693
-0.6960000000000002,0.004726412244433079
-0.7200000000000002,0.004372232763648133
-0.7480552215030067,0.003999999999999159
-0.7680000000000002,0.0037562904262207963
-0.7440000000000001,0.004050274912340047
-0.792,0.0035025745236067184
-0.8160000000000001,0.003278083572984966
-0.8400000000000001,0.0030915089998924607
-0.8640000000000001,0.002917647343505878
-0.8879999999999999,0.002767398149535077
-0.912,0.0026344472143347794
-0.936,0.002509439847158298
-0.96,0.0023950616040408343
-0.984,0.0022969989494054594
-1.008,0.0021982835356701797
-1.032,0.0021114060185323975
-1.056,0.002026498738220605
-1.08,0.0019452347573049658
-1.104,0.0018728958787704204
-1.1280000000000001,0.0017977943145979169
-1.1520000000000001,0.001737874742666756
-1.1760000000000002,0.0016725869576677533
-1.2000000000000002,0.0015215561049405182
-1.43,0.0012485785866597247
-1.6599999999999997,9.739548424533482E-4
-1.89,8.100523871956083E-4
-2.12,7.00822947734004E-4
-2.3499999999999996,5.955996857533327E-4
-2.58,5.379304667536048E-4
-2.81,5.0804119933714E-4
-3.0400000000000005,4.7172380865626506E-4
-3.27,4.536625195272481E-4
-3.5,4.542269003625165E-4
-0.3551322589607364,0.037329037156568295
-0.35661493867070204,0.03796528862773704
-0.36575349433088594,0.04124528736534418
-0.3663772978337436,0.04143913540010154
-0.362472230916881,0.040180525089140384
-0.3605197499550543,0.039495453574901335
-0.35997491907006407,0.03928672174125332
-0.35856732642508515,0.03874937303655589
-0.35466260047670584,0.037128556948072294
-0.35271030836703704,0.03624287057551707
-0.350894097170809,0.03537192162652424
-0.35075806340067145,0.03530710456215033
-0.3488058679004312,0.034318791416598854
-0.3471168037344364,0.03341523994262327
-0.3468537237346101,0.03327594647402825
-0.34490162507745825,0.03218475834371052
-0.34367613072374503,0.03145887514202082
-0.3429495820824293,0.031034441174966017
-0.3409975835682028,0.029836872701930355
-0.3404849183462768,0.029502745175361604
-0.3375031361670485,0.027546812359324664
-0.339045637592851,0.028583492955309632
-0.33468446972572863,0.025591033095013194
-0.33514188802109157,0.025925486432507465
-0.30261625689775035,0.00506898060657401
-0.30160363525963246,0.004661009533733032
-0.3009358668522551,0.004377965433224126
-0.2992521028417711,0.0037658366874240307
-0.3331900790645351,0.024526553633792882
-0.33199882621024185,0.02363537905407599
-0.37028255717947484,0.042493331368005455
-0.36832990988298714,0.04198495470141403
-0.3644247466255751,0.04082868553167418
-0.33709374258039476,0.02727597608267929
-0.2936660909808855,0.001711654037482917
-0.29544702989827554,0.0023663783962575777
-0.29156357167626895,9.326978985072124E-4
-0.2895616078082246,1.9070182735465748E-4
-0.2875905370624875,-5.401797928586232E-4
-0.2876662043926739,-5.121529974477956E-4
-0.30286459771767754,0.005154691438128781
-0.29734695430410674,0.003066352795297737
-0.33123831343908405,0.02308159084540902
-0.32939526448255796,0.021679802282197395
-0.3268700830608831,0.019724299294938342
-0.32733486806344736,0.020100441270946446
-0.3732778607460663,0.0432054964192051
-0.3741879561119665,0.0433992463972394
-0.3722352320808679,0.042972383757944696
-0.28571692500341667,-0.0012335578539131684
-0.2837794920217496,-0.0019505443054793723
-0.28181817842895185,-0.0026758762887505267
-0.2798686333020543,-0.0033965652240995283
-0.3032138283654776,0.005262598119563066
-0.3292865826717694,0.02159959879138416
-0.325383174129366,0.018579321805120792
-0.3243814363599722,0.01776883070025994
-0.3218913111416449,0.01581336071374701
-0.3234314929611609,0.017044641353401335
-0.3819994020746319,0.044522611846557564
-0.3800464619680508,0.044325283010023
-0.3780935798164039,0.044066389502888985
-0.37614074585738055,0.04375630167371982
-0.2780004917545099,-0.004087252809889325
-0.30351899426546264,0.005341585101423199
-0.3214798140484607,0.015507564897235412
-0.3195281172816719,0.013989454581783689
-0.3193711542358727,0.013857862456404439
-0.38590555757752926,0.044624833295682974
-0.3839524202093434,0.04463705255460005
-0.275969796554153,-0.004838637561698176
-0.2722321385991392,-0.00622482137444124
-0.27402140908987915,-0.005562497856693668
-0.2707180585830076,-0.006792924944798603
-0.3044158730665124,0.005662720728510864
-0.3049887491832286,0.005876600029445642
-0.3048232534448998,0.005820248251406663
-0.31757637480416856,0.012519902077959489
-0.31681199079085925,0.011902327479583148
-0.3138302481453598,0.009946394700779142
-0.3156245368410072,0.011151782581289326
-0.3878589061495981,0.04438825528153509
-0.2584386707618324,-0.011365328019074871
-0.2603869964377744,-0.010641298457994136
-0.2565782271192745,-0.012068037491373126
-0.2701260487097608,-0.007014093532381215
-0.2681277252588151,-0.0077592561013243196
-0.26428301474355337,-0.009191505137187677
-0.2623496641452253,-0.009911350800802111
-0.30505185058272216,0.005898394104011897
-0.30586361991736877,0.006145866191273821
-0.3057867206726619,0.006032571060537603
-0.31367261462613516,0.00987316242811103
-0.3117203641988867,0.008943197426328067
-0.38981271000548323,0.043668036009088244
-0.25470069367379383,-0.012780358156105606
-0.2662309510827362,-0.008466409007212404
-0.3099198037783847,0.007989587673014439
-0.30781591203252767,0.0070315467394277045
-0.3904214554423686,0.04322163482951077
-0.25455077431045775,-0.0128373707595182
-0.2526064426617242,-0.013572341761207286
-0.25082145687080065,-0.01423558281188252
-0.30976820036374847,0.007921246905966805
-0.3902586161718122,0.04126835567264376
-0.3889551465352227,0.039314002764249206
-0.38981551597410397,0.040687297023461126
-0.3872858019361249,0.037359305433348616
-0.3878648155323915,0.03811080529615683
-0.385530182867052,0.035404526886510135
-0.385913793472851,0.03587596344443859
-0.24871611419518214,-0.01503772211589925
-0.24672338395735693,-0.01579025125028468
-0.38396281397801324,0.03359590574168879
-0.383848265734015,0.03344981772022679
-0.2370657528035766,-0.01949036163308828
-0.23521774228480186,-0.020218021724996454
-0.2448281001126828,-0.016509442611616063
-0.24288478175235023,-0.017247189466865164
-0.2409617002611664,-0.017986821027764624
-0.23973595768982925,-0.018453797010688604
-0.23900391632850038,-0.018738493360436797
-0.38233485454993993,0.0314952671798426
-0.38106847604831273,0.029540949187828274
-0.38201211615291963,0.031016634425000418
-0.2331954351579838,-0.02101056064495746
-0.23125623370743204,-0.021759585571534328
-0.22948244042223573,-0.022442552379481763
-0.22737751617924798,-0.02325677351934759
-0.22585102789617706,-0.023838447712337174
-0.38012369776120625,0.02758693393956029
-0.22539081062902458,-0.02401783957809092
-0.380062400945813,0.027393542551249806
-0.379510305530307,0.025633230647109557
-0.18432092300546424,-0.038655536566720834
-0.1823163449693269,-0.03935167104865583
-0.18515026791318467,-0.03837957561976647
-0.21571817864997575,-0.027684823350132372
-0.2138592399358714,-0.028373392236131008
-0.2235056545874488,-0.02477274296677645
-0.22156275774266346,-0.025511644543110792
-0.21963510133262576,-0.026230376363893193
-0.21766628547795308,-0.026960194265810707
-0.37928694414842173,0.023679894516742697
-0.17652147535804,-0.04145610113857614
-0.17844727429848606,-0.040749080598987665
-0.17259237537170302,-0.04289398872943006
-0.1745435590746629,-0.042177788592385135
-0.1707386542674121,-0.043578402900348215
-0.18040003954030265,-0.04003721300966273
-0.19021571184106928,-0.036619904874233826
-0.18825318303139962,-0.03730502565095038
-0.18646374246244746,-0.03792288777465267
-0.19399197097331258,-0.03546817186780922
-0.1922899946651407,-0.035951396715085016
-0.2098588463061863,-0.029817586353314423
-0.20807280034736683,-0.03045593110308297
-0.20594799910440337,-0.031226756644807147
-0.20395056745403,-0.03195045977114238
-0.2118152277218694,-0.029115625093936517
-0.3794779982817328,0.02172694850336352
-0.16868244221104212,-0.044305662991497324
-0.16662303199056522,-0.04504069195095507
-0.16283014513664465,-0.04645769876822712
-0.16084256847455153,-0.04719240376880585
-0.2020379965030516,-0.032638240677541855
-0.20008246805455426,-0.033342538598459065
-0.19815070629653503,-0.03404163531635608
-0.1941970057039997,-0.03540371973673819
-0.38012139962846325,0.019774428314610147
-0.38006941484390155,0.019942782292443985
-0.15110541468203748,-0.05070660790498216
-0.14926072967912513,-0.051406478568643554
-0.15892299288921666,-0.04787699120495975
-0.1569637273110617,-0.0485710514434679
-0.15503523909734934,-0.04926227089926953
-0.16486230379378483,-0.04569088383918912
-0.1961653623351876,-0.03473456398968523
-0.38129310901711205,0.017822405457503444
-0.14517069746169256,-0.05294040098317403
-0.14721287449882603,-0.05216592937101744
-0.14137201772573582,-0.05434930528899035
-0.142862954271617,-0.05381599591676487
-0.1530529966829725,-0.04998054108287453
-0.13936957848848053,-0.05503527837756822
-0.3820252270662805,0.017089104973664695
-0.1438451774392444,-0.05345744843915976
-0.14342030734556432,-0.05361962960881855
-0.12712576995276265,-0.059560645328551945
-0.12573280586588548,-0.059997428996112566
-0.13743938504462547,-0.05569879533426616
-0.13549007625985843,-0.05642013171722206
-0.13359385699345752,-0.05719129284766119
-0.129696493368667,-0.05873301210326165
-0.1278249925629657,-0.05935007345288711
-0.383285154238349,0.015871154837276143
-0.12366476698645558,-0.06069327879570643
-0.13345472935388508,-0.05725034304293544
-0.13164168648461658,-0.05800040104854538
-0.3859341269593962,0.014276001265076423
-0.38397991441224416,0.0154303672426294
-0.11120984513333285,-0.0653705415780845
-0.11013199891856618,-0.0657507610670499
-0.10893310579818569,-0.06620163493108876
-0.12191090158475887,-0.061363711786619646
-0.1202332057768612,-0.06207668402623731
-0.11793869101822067,-0.06303138900142735
-0.11990696856220723,-0.0622219500097782
-0.10818944220137276,-0.06649059440614882
-0.10636750632341797,-0.06723403453961961
-0.005311726870987905,-0.1034196248895759
-0.004597452654452287,-0.10367836977715245
-1.711870429579465E-4,-0.10528788686579607
-6.17736310384619E-4,-0.10512488000686024
-0.3865846644696508,0.013921135021172466
-0.11602895597075309,-0.06372106909696991
-0.11406602807033069,-0.06440509658426291
-0.11213583203366255,-0.06507469829339606
-0.09847190019200973,-0.07017672563537487
-0.09647281537940335,-0.07085581546551423
-0.10431008336998603,-0.06798602553544861
-0.10227053340924883,-0.06875213683533375
-0.10051801707149652,-0.06942699908293974
-0.0026718386576865504,-0.10437773595284941
-0.006477106588426765,-0.10300094976196644
-9.173463702748523E-4,-0.10501660585511116
6.71949603648308E-4,-0.10559734472400041
-0.007491018592786591,-0.10263643886193845
0.2969835368445835,0.0018373652032659523
0.29520069304527685,0.0011869130746390468
-0.3878880672410924,0.01341085886103088
-0.09452056378603949,-0.07147497774878511
-0.09256608443772511,-0.07218214962794331
0.004019644869464657,-0.10438476987893476
0.00564199013811712,-0.10380023156027793
0.00594782856254272,-0.10369097510949069
0.007132833548197027,-0.10327152466256814
0.0022632315614990167,-0.10502197845456201
-0.009298561080098971,-0.1019951226252557
-0.008422003087909606,-0.10230158663605346
0.29309368141491215,4.2017828812395726E-4
0.2910874798117771,-3.100441148673111E-4
0.2795195822326355,-0.00456957707530298
0.2813910084387893,-0.003887884818303144
0.2781396656713725,-0.005072153161527116
0.29888786462750877,0.002532490484653765
-0.38984183009760076,0.012734192620860531
-0.0906961549069269,-0.07300834182163507
-0.08846629784850904,-0.07398891253927478
-0.08875692583457312,-0.07386989082044815
-0.0828865954043449,-0.0759725251082065
-0.08442252737243341,-0.07546503706167312
-0.08084879914754649,-0.07673565003692348
-0.0768693843137039,-0.07822221127723687
-0.07505563633988463,-0.07885154150954692
-0.07123609401692149,-0.07996242670729152
-0.07108256761197453,-0.08000420309884715
-0.06915004472098649,-0.08065039162433721
-0.06716815456841396,-0.08140360494264798
-0.06562665553309838,-0.08201007747082996
-0.06339462567937305,-0.08284315279607733
-0.0652306482137113,-0.08215727350071285
0.007833318958859296,-0.10302782373285904
0.008439945805187267,-0.10281565809307727
-0.010341302391574752,-0.10164223839490688
0.2774907741455162,-0.005326225499109099
0.27555135667493313,-0.00607487928460528
0.27376474888979235,-0.006744597483788547
0.30079311197349423,0.0032278022151276215
0.2904330630758185,-5.484185594049965E-4
0.2872488527944851,-0.0017510237131297135
0.2891951111380584,-0.0010212475771422648
0.2853084267932733,-0.0024598223782984134
0.28334387899418684,-0.0031763016212688617
-0.3923203177821062,0.011973408509198523
-0.3917955247136319,0.01213001721779341
-0.08682970161045941,-0.07465172676816673
-0.08497046481666955,-0.07528352588980311
-0.07918744809201901,-0.0773760329869738
-0.07308975607717716,-0.07944142524600004
-0.07705140667811178,-0.07817142836102266
-0.06132866127803077,-0.0835907160542565
0.010037083004114043,-0.10226378535102662
0.009785692201178814,-0.10235327001222158
0.012662217466191072,-0.10135271553926424
0.011727178547179001,-0.10168321874254733
-0.011031366223074265,-0.10143197167375488
-0.010365341626497054,-0.10163470748698114
0.27165255786878995,-0.0075171755155877835
0.270529120927922,-0.007927661863872388
0.2608125001315116,-0.011804895919864104
0.26197478313157874,-0.01131366123617289
0.30248723267412714,0.003833958759572473
-0.4015625482340791,0.010648986071743373
-0.39960930669017414,0.010771869640170163
-0.39765599244828254,0.010971979211747616
-0.3957025920063527,0.011263657816002564
-0.39374910206848157,0.011650406636170441
-0.07909634935595453,-0.07741143713522146
-0.05838743026805317,-0.08465266017927887
-0.05751125507799017,-0.0849481771105585
-0.0592949554249301,-0.08435724765987775
-0.05543615011849574,-0.08563258732795169
-0.053467351074124064,-0.0863785165678696
-0.05244513665370047,-0.08682181527238783
-0.043845774888642206,-0.09024955597696623
-0.04201505386979098,-0.09094038505988708
0.01372196643410693,-0.10102767550942884
0.01374921403875943,-0.1010206446133754
-0.011721798948585768,-0.10124238623470201
0.26967144357465966,-0.0083098511821218
0.2686777841363086,-0.0087399317219016
0.2658459067715908,-0.009795104823238818
0.263918273035579,-0.010530787388779427
0.2600459795534826,-0.012091562086263882
0.2581843066714796,-0.01279101690933191
0.3041663246175417,0.004490334873069143
-0.405468788516091,0.010661147922597274
-0.40351571621433774,0.010604248060811708
-0.40937480354177,0.010912596256378965
-0.40742180482556656,0.01077752755169653
-0.05157989385457867,-0.08719130680149997
-0.04965486586123401,-0.08797915921511984
-0.047767119998862836,-0.08873945361416517
-0.04578818202472007,-0.08950931286778209
-0.039938182690519346,-0.09166764319045934
-0.03909324899014615,-0.09201188604808734
0.015312720403551042,-0.10054684865240876
-0.012302054617819736,-0.10112424337499389
0.0176241647150913,-0.09984842640366282
0.017621216875259537,-0.09984927191694926
0.08626320876556373,-0.075147012247998
0.08689509247404294,-0.07492031025858029
0.19175685541786558,-0.03716601376213407
0.18978555028716476,-0.03782679964654666
0.18801059459113656,-0.03848440206684216
0.18589126595715258,-0.039281535722365236
0.184991761411751,-0.03963651069890366
0.26779319248061445,-0.009068132327418023
0.2561553981382553,-0.013556501712552394
0.254211728076633,-0.014293437289634597
0.25243428795891043,-0.014977541107943105
0.24924833671349209,-0.01631750871524706
0.2503429031308241,-0.015818327859174308
0.23870625321598166,-0.02030985076642254
0.24064746764762232,-0.01956614858901073
0.23685050723421072,-0.021016480880920407
0.3042844631883605,0.0045313572207579065
-0.42109230545764204,0.012243933310466325
-0.419139318909044,0.012095939146338924
-0.4181172201569562,0.011997692855760462
-0.41328066812888764,0.011323853246470648
-0.4113277772436642,0.01107423728717485
-0.034200355215518737,-0.09413326278947952
-0.03249843168916472,-0.09489344939696813
-0.03792892383537435,-0.09249333897282763
0.015821422896509042,-0.10039703201695362
-0.012411552178344297,-0.10111872881944531
-0.012918928994290932,-0.10103956921424533
0.01900659358092336,-0.09955735375283592
0.0685645520729368,-0.08155084931802231
0.06660889208374962,-0.08225474610306985
0.06475733341968867,-0.08289790627418017
0.060634584575574725,-0.08434852080064353
0.06267591689860276,-0.08360286776376276
0.0588755183554543,-0.08500702843728214
0.05683976469642531,-0.0857995054317927
0.05656965906922047,-0.08592554728531121
0.08419775843032748,-0.0758864058032408
0.08811332806556876,-0.07449032235634853
0.08213540742222258,-0.07658198012342875
0.07634213589234042,-0.07869761013878933
0.07830220063312072,-0.07791934864610198
0.12135798808699552,-0.0625197789246666
0.12339775296873538,-0.06175960869940397
0.11935318439558396,-0.06322905099778511
0.1636956949401263,-0.04736494960127763
0.16440763225618077,-0.047103281102252106
0.16644799484280454,-0.046358931568232106
0.1408745312109094,-0.05548118922303605
0.14285775608005885,-0.05474249232214392
0.15077725116843346,-0.051884118757100924
0.15263573899900984,-0.05122213481450797
0.1466610089939439,-0.05334605323089602
0.14871738328548528,-0.0526105410956985
0.14489627039466232,-0.053985962496062904
0.19202024513141847,-0.03708584214816847
0.19381676859121194,-0.036458357819633726
0.19569078316594096,-0.0358205169320119
0.16821319562546772,-0.045721015659434844
0.16830729743036074,-0.04569137818680516
0.18390989466787067,-0.04004144385985891
0.17812651673467858,-0.042177515261825886
0.1800501277548557,-0.041464434239765875
0.23288755416163429,-0.022554581378900845
0.23482076628309728,-0.02178882847099478
0.23111526926818626,-0.023241898378690763
0.22900526045114267,-0.024042358153396982
0.22701327021022877,-0.024789058896007528
0.20965972647422207,-0.031129935729612777
0.2101847686811701,-0.030967742676971242
0.20548913282373021,-0.032491173831882644
0.2075005056511094,-0.03180590338201737
