"Plane Section: Position[X] (m)","Plane Section: Position[Y] (m)"
3.5,0.002013392240896365
3.27,0.002027307876009562
3.04,0.0021056888598995366
2.8100000000000005,0.0022273124924361157
2.58,0.002394569564887596
2.3499999999999996,0.0026508300821519197
2.1200000000000006,0.003007042661238479
1.8900000000000006,0.00351394623814632
1.7550390047806839,0.003999999999999864
1.6600000000000006,0.004348216490721209
1.4300000000000002,0.005920556139094538
1.2000000000000006,0.007925362526303567
1.1760000000000004,0.008760114926082245
1.1520000000000006,0.00895835269224586
1.1280000000000001,0.009697064965190022
1.104,0.010268441506989879
1.0800000000000005,0.010722291916620955
1.056000000000001,0.011255387394654887
1.0320000000000005,0.0117328334122277
1.0194324333577325,0.011999999999999927
1.0080000000000005,0.012244672986483638
0.9840000000000005,0.012844539785256195
0.9600000000000004,0.013585117201495557
0.9360000000000004,0.01436543497718503
0.9120000000000005,0.015210954995579926
0.8880000000000003,0.01616973735162891
0.8640000000000005,0.01722573114372327
0.8400000000000003,0.018375136229739013
0.8160000000000001,0.019627025256972276
0.8100269784301681,0.019999999999999532
0.7920000000000005,0.021102232064957656
0.7680000000000005,0.022690114846821555
0.7440000000000008,0.02447677494274728
0.7200000000000009,0.026472261147833735
0.7039231664504485,0.027999999999999005
0.6960000000000008,0.028779150534948304
0.6720000000000008,0.031643888884027416
0.6480000000000008,0.03496441141529971
0.6425699380234716,0.03599999999999837
0.6240000000000008,0.03938765723457084
0.6051333708718031,0.043999999999997735
0.6000000000000008,0.045414738155154365
0.5801248065577205,0.05199999999999695
0.5760000000000004,0.053532035033274326
0.5600058340019061,0.05999999999999622
0.5520000000000003,0.06309547795663106
0.5398910259281322,0.06799999999999566
0.5280000000000005,0.07369857177815711
0.5230014842517551,0.0759999999999949
0.5124777787504103,0.08399999999999433
0.5044551402477713,0.09199999999999331
0.5039999999999994,0.09237652805109109
0.4952018280512182,0.0999999999999927
0.4925233481805316,0.12166666666665966
0.49568794280093,0.14333333333332612
0.470302601077486,0.14333333333332593
0.45599999999999863,0.1317789517735301
0.479999999999998,0.15085738879449856
0.44709607023596587,0.12166666666665885
-0.6427576923136467,0.03599999999999701
-0.648,0.03497043804170903
-0.6053190946504835,0.043999999999996514
-0.6239999999999999,0.03946368992678961
-0.5803482803851399,0.051999999999995675
-0.5999999999999998,0.045470650018883535
-0.5604336638872142,0.059999999999994835
-0.5759999999999998,0.05359932447032461
-0.5409876016324585,0.06799999999999412
-0.5519999999999998,0.06342988404450176
-0.5220959732168179,0.07599999999999327
-0.528,0.07359579750696202
-0.6719999999999999,0.03161566892869748
-0.5106089757357442,0.08399999999999254
-0.5018541999726011,0.09199999999999174
-0.5040000000000004,0.09014871800779264
-0.44118280455873016,0.1216666666666573
-0.4320000000000007,0.10666117336811504
-0.7045253689175277,0.027999999999997898
-0.7200000000000001,0.02648328551594912
-0.696,0.028864253999333667
-0.4920532757682421,0.09999999999999101
-0.4560000000000042,0.13687957231859155
-0.7439999999999999,0.024490854302310835
-0.49119189494545523,0.12166666666665768
-0.4673865572992521,0.14333333333332454
-0.768,0.02273233392208576
-0.49368681050194274,0.14333333333332476
-0.480000000000006,0.1506939626556964
-0.8106212521357323,0.019999999999998734
-0.8159999999999998,0.019661956633513927
-0.7919999999999998,0.02114421600786833
-0.8400000000000001,0.01839617846114025
-0.8640000000000001,0.017223772666845334
-0.8880000000000002,0.016210286335884817
-0.9120000000000001,0.015226705642952431
-0.9360000000000002,0.014377818693074631
-0.9600000000000002,0.0136126663449764
-0.9840000000000002,0.01279623414314501
-1.013870297190366,0.011999999999999622
-1.032,0.011576462293623167
-1.008,0.01214003607871646
-1.0560000000000003,0.011105910860046989
-1.0800000000000003,0.010654677168939987
-1.1040000000000005,0.010241775601235969
-1.1280000000000001,0.009823932979019491
-1.1520000000000001,0.009300194061912709
-1.1760000000000002,0.009083966363722709
-1.2000000000000002,0.007987963998494448
-1.4300000000000002,0.005881261323002128
-1.7557656354212483,0.004000000000000094
-1.89,0.0035125793464567253
-1.6600000000000001,0.004353958251606178
-2.12,0.003008792812571639
-2.35,0.0026440964769114273
-2.58,0.002397187571651648
-2.8099999999999996,0.002219948693236047
-3.04,0.002098144701987023
-3.27,0.002030026244555754
-3.5,0.002013960170515676
-0.35602561744680905,-0.03956580032604607
-0.35847507387237443,-0.03753066905743914
-0.3545712483936526,-0.04114205546672553
-0.3623786510072332,-0.03354950247157019
-0.3603518910271324,-0.03565664392570507
-0.36411280269253876,-0.031747867221636535
-0.3525179759416096,-0.04347440693421203
-0.3662821062011018,-0.029386767630720647
-0.36770444070999353,-0.02783920420152424
-0.350789266477168,-0.045428693373593
-0.35066795014320223,-0.04553847663142096
-0.3487159968404656,-0.047283771593767336
-0.348615582131068,-0.04738327865748199
-0.34664319118612763,-0.04933772875301837
-0.3467641707338859,-0.04921845968074258
-0.37018471115441315,-0.023958037730500197
-0.3702027030800474,-0.02393127549100565
-0.344812278428274,-0.05105457841556996
-0.3445614848944012,-0.051292252264577176
-0.3424284929178497,-0.05324681021953534
-0.3428603508068998,-0.05283811253531849
-0.3727026595399807,-0.020023345642737785
-0.34090843380764824,-0.05463746282686845
-0.3403053072728771,-0.05520136158857052
-0.33819874204126943,-0.05715590179536424
-0.3389565237302518,-0.05644711964988026
-0.3740873007399059,-0.018506425358382657
-0.3370046156530498,-0.05825975473857849
-0.3360671966684561,-0.05911045877878612
-0.3338385185044342,-0.06106508099646425
-0.3350526816747218,-0.060033823424927385
-0.3762331261236614,-0.0161147237052836
-0.3331006726467949,-0.061696144465563985
-0.33125408916801374,-0.06301994213613452
-0.37799064280574934,-0.014175244627153444
-0.3797878920401293,-0.0122060854484168
-0.331148491922733,-0.06310281260609502
-0.329196301223038,-0.06449462714720222
-0.3286319034672563,-0.06497482863293559
-0.3262768906481551,-0.06692953569679275
-0.32724426501434134,-0.06611647642159063
-0.38189334147412546,-0.008886055018954706
-0.38227084248815535,-0.008298167021374748
-0.3208299984134745,-0.07083944470309736
-0.32138776464262486,-0.07039872104264987
-0.3252922418361311,-0.06775772788631403
-0.3236988882770205,-0.06888439252012116
-0.32334005293166795,-0.06915221550554622
-0.38445314439584033,-0.004390450509476442
-0.30268204004346017,-0.08169047704235799
-0.3024047318938878,-0.08183151638976037
-0.30100742189417373,-0.0825134406256875
-0.29928752775374146,-0.08314368452506546
-0.3194356479699035,-0.0719007606144791
-0.3181975858372754,-0.07279433806824412
-0.3151497950034948,-0.07474951040088605
-0.31553112750809215,-0.07447732793799494
-0.38579556122776154,-0.002883768751918848
-0.38815319869599335,-4.8171467714241544E-4
-0.29367274475127536,-0.08521064174974241
-0.29545585841826105,-0.08455542246701866
-0.2915685648365822,-0.0859865458605556
-0.28956317463341646,-0.08671933576451195
-0.2876626489166679,-0.08740817183593057
-0.28570730644566317,-0.08811296254873804
-0.28376375446043667,-0.08881317979599318
-0.28179805964606536,-0.08952650673926009
-0.2798464926827804,-0.09024165921297471
-0.3028117237760723,-0.08164857980842133
-0.3048735554080265,-0.08076955746742942
-0.30483662263094646,-0.08080826604515917
-0.29736543839777035,-0.08385654936551674
-0.3174834746832915,-0.0733185029935444
-0.31357889269628103,-0.07580346023708529
-0.3121610096975406,-0.07670464310547208
-0.3896986576262937,0.0018132068095094351
-0.2602990999662826,-0.0973062072919582
-0.25834120185794657,-0.09800400136995491
-0.25646877693551146,-0.09867387885782664
-0.27797650954184155,-0.09092730429695443
-0.2622660136549134,-0.09658789083153106
-0.2642058049101076,-0.09588569316907358
-0.30493290182148797,-0.08073401457766372
-0.30576928205887266,-0.0801082998719387
-0.305430462461231,-0.08061541421274404
-0.31162660956349175,-0.07705764335813187
-0.3907423613987709,0.003426275081912671
-0.2544262161125803,-0.09940181163298262
-0.25246778026142647,-0.10009813135646288
-0.25067551800191623,-0.10074143099616391
-0.27594446839785547,-0.09167500651666775
-0.273993905652475,-0.09239291230144116
-0.272198304111701,-0.09303788467143972
-0.2700817360179514,-0.09379844362688873
-0.26807473904393336,-0.09451983743151111
-0.26546802485813115,-0.09545103292877653
-0.3096742015364899,-0.0781258609197491
-0.30877372664314046,-0.0786600434406132
-0.3077218441761618,-0.07926952037241358
-0.3945712952535866,0.011241348350501612
-0.40458615380359164,0.026873077839493876
-0.40530583140245313,0.02836142549659182
-0.41105202561297055,0.04250242383383454
-0.408204504214306,0.03468800968052513
-0.23685192637626482,-0.10581025354025571
-0.2349849771902126,-0.10648602806296677
-0.24856093821186961,-0.10151826957004251
-0.24656355440721606,-0.10225805859940448
-0.23880411518058547,-0.10509680599712856
-0.2661669388859985,-0.09519677102007928
-0.39750224761126873,0.015082704911284151
-0.40050128912371424,0.019057832688124245
-0.41293623290956216,0.05031619102670292
-0.4320348444688449,0.10501652996096386
-0.4365000140674954,0.11148306866585453
-0.44291074049090595,0.1206488377215742
-0.4521111933841491,0.13206709943282433
-0.4560263566761248,0.13628264967517467
-0.46772583058970013,0.14750238702187712
-0.21359105635361147,-0.11423167715007834
-0.21534729037073477,-0.11357439104590447
-0.22284586655021066,-0.11085616107921119
-0.22120589908845678,-0.11143964789867036
-0.2192674729300807,-0.11212886315915448
-0.21729479668121665,-0.11284810529097113
-0.23294294242897357,-0.10722451921298667
-0.23098781966768112,-0.10792992258943618
-0.22919861588844043,-0.10857066415901373
-0.22707386534288249,-0.10933056074632927
-0.22507171297158074,-0.1100493022711827
-0.24466271649651442,-0.10296204255607673
-0.2427111553136657,-0.10367721087827633
-0.24077447912016403,-0.10437959726282042
-0.41310331234508024,0.050727193357749285
-0.4165592933075017,0.05813112603095056
-0.4275444228800275,0.08938851067629822
-0.477091738617802,0.15192180068063066
-0.20948985460471006,-0.11571235012947709
-0.20770442182039855,-0.11635236617136482
-0.2055794102694831,-0.11712261178848701
-0.20358251965467092,-0.1178477945050369
-0.21227216608544128,-0.11471271730124331
-0.21144725032733924,-0.11501317863714391
-0.21349066863114166,-0.11426932008628447
-0.2231637857703092,-0.11074182249213398
-0.42090337685962964,0.06924606248472844
-0.4238970641571856,0.07376105759149776
-0.20167244931099765,-0.11854242398401907
-0.19972745951897228,-0.11927560939499242
-0.19873072994529964,-0.11965169868959964
-0.18412045362488638,-0.12501199052878265
-0.18212791168717957,-0.12574109883267204
-0.18998049883042378,-0.12288118586720284
-0.18803081937264265,-0.12360151340280728
-0.18624931922055088,-0.12424112019575984
-0.19781432001311977,-0.1200257593413799
-0.19388650844828564,-0.12145876533672086
-0.19202481691998008,-0.12213058735172422
-0.1449079355023189,-0.13912606416524892
-0.14529884638984059,-0.13898385819448986
-0.149022895436709,-0.13766045651529313
-0.1498835887436717,-0.13737410226349797
-0.11760252163729856,-0.14901590187658642
-0.11771901733962156,-0.1489736968612223
-0.17828512321064865,-0.12721055688648875
-0.17635873970639088,-0.1279159779008962
-0.1743703955769471,-0.1286090748262722
-0.1724108444592371,-0.12930233677138625
-0.170552996575749,-0.12997544229181718
-0.18022474800489777,-0.12646266201087214
-0.19584175369144965,-0.12075369777451295
-0.14489429505787613,-0.139131410601675
-0.14490815050750303,-0.13912665365499144
-0.1465903574635405,-0.1385752457634764
-0.1469605524353047,-0.1383801944217659
-0.15089319854039385,-0.13703080439082557
-0.16850029035729114,-0.13071229747786445
-0.16644293686173606,-0.13145295331429846
-0.16264130431399354,-0.13284600609393266
-0.16064952154015244,-0.13356918600601553
-0.11745384871294841,-0.14907041207653382
-0.11960560363601763,-0.14830182039629908
-0.11847153305069535,-0.14870919030559032
-0.11784960050104798,-0.14895382099322252
-0.1176099833313102,-0.14903635995111236
-0.14689588914838503,-0.13853915743321898
-0.14700687537375753,-0.13850720018291077
-0.15444116681370829,-0.13580547482831945
-0.15286105918208232,-0.1363603250552111
-0.14710939245043814,-0.13847960013888494
-0.15873333591168226,-0.13426305613371664
-0.15677987688299108,-0.13497302104345238
-0.15485206631512644,-0.135666089220962
-0.16467996716808025,-0.1320970053035403
-0.12165331790320658,-0.14756352529849515
-0.12200590155990503,-0.14743788919975914
-0.12342758800961004,-0.14694901429838703
-0.12477196523356773,-0.14647064784827254
-0.11961355083328579,-0.1483236095977569
-0.14499140955313983,-0.13935492886409556
-0.14701338013097476,-0.13852503457919363
-0.141983653715703,-0.14048960967293325
-0.14323597311130243,-0.1400203517261626
-0.1227742425115502,-0.147175028076963
-0.12343699658213586,-0.14697481022055175
-0.12165293790643042,-0.1476082537682892
-0.12945305158644113,-0.14497175453730718
-0.12762510675390118,-0.1457081866505424
-0.14119981660923292,-0.14078328024140746
-0.12166774005692195,-0.14760306719006677
-0.12755430808199741,-0.14575243916852035
-0.13736294341457608,-0.14217492590836783
-0.13729196020325923,-0.14220063734677363
-0.13921463203068507,-0.14151652818389834
-0.1353293236167633,-0.14288543971816348
-0.13339668665784998,-0.14355681138392973
-0.13140720974619682,-0.1442637064678177
-0.1079422250690112,-0.15271891922767863
-0.10609535922189847,-0.15339406586770943
-0.11026241735605614,-0.15191883378622456
-0.10990634942018324,-0.15203819593007534
-0.1256030133170334,-0.14654763432471213
-0.10419241169811339,-0.1541327529497172
-0.1134028986248653,-0.15091389672769984
-0.11191503406175576,-0.15137547556739622
-0.1235553462684612,-0.1472992950760929
-0.11973558732252387,-0.14865820273280073
-0.11775643349471498,-0.1494378891954432
-0.09821089206330144,-0.1563673428469072
-0.09621962331976892,-0.15706782512389827
-0.10405257602029497,-0.15418619629374758
-0.10201680382107282,-0.15496268146502812
-0.1002603022652825,-0.155626643434282
-0.0063485763273501234,-0.18955389777327142
-0.004470899316064153,-0.19023646380159132
-7.92091151002287E-4,-0.19157561538269316
-0.0023207693804497367,-0.19101847388580898
3.513305438273478E-4,-0.19199307153229617
-0.007818762576733453,-0.18901866724108266
-0.11584993700200596,-0.1501364432984787
-0.11386904855460447,-0.15077120369148492
-0.1217766591512515,-0.14790169575163362
-0.09428923369328862,-0.15774685846365513
-0.09273431944394828,-0.15845236804207918
0.009888289121531925,-0.1888584137170681
0.009921163515439764,-0.18884650368282158
0.011819891064663834,-0.18816141567862435
0.013501785846681357,-0.1875542051299533
0.00794656439283944,-0.18956192341198227
0.006067747763532787,-0.1902434786520805
-0.0025458561217571226,-0.19093655511111066
7.961604889045271E-4,-0.19215677595202418
-0.014249331774970685,-0.18667571049923268
-0.01219250782341296,-0.18742401671020556
-0.010220495781850487,-0.18814323612187092
-0.008290713145298173,-0.1888471906642748
0.018507478114719852,-0.18574841651305338
0.01761961016891941,-0.18606770807800657
0.11346405548900054,-0.1512571575268548
0.11393602412562462,-0.15108782844764035
0.10815016419775954,-0.15318930977525763
0.1095222880004651,-0.1526856864465972
-0.07930747770398058,-0.1632090595227481
-0.078748217857842,-0.1633633060903958
-0.08144591018987135,-0.1625696007072616
-0.08055351056542698,-0.16283237399795297
-0.07773732422167383,-0.1637817431543551
-0.07820875895048728,-0.16360168025362343
-0.07818735257555283,-0.16360823593171656
-0.07784674357293142,-0.1636942943968713
-0.09240317747235073,-0.15864162479550187
-0.015927872798927916,-0.18606924622751925
-0.01773154177713899,-0.18542372641759108
-0.016016222068237343,-0.18603723718728965
0.013793999519087557,-0.18744899324719708
0.015852412492540435,-0.18670528280297846
0.004141846080997836,-0.1909432731276774
0.0029288580616681987,-0.19138617791167828
0.0022682695509605817,-0.19162611016688919
0.01965990353323167,-0.18533489520286583
0.11147589004944342,-0.1519761191350162
0.11515849510763468,-0.15066230713890777
0.10782584697355933,-0.15332559718186123
-0.09208935107600524,-0.15889834866068453
-0.08265620937190545,-0.1622471809461724
-0.08396756232994784,-0.1618606166979575
-0.07689715295530411,-0.16422867342962905
-0.07803287445785491,-0.1637132850786315
-0.07676501631504028,-0.16429258609082936
-0.0748351122513676,-0.16515325229369743
-0.019135503927275106,-0.18493015915306504
-0.018058185868541504,-0.18530896953825143
0.0023867503380719892,-0.19158375736625965
0.02086849047196335,-0.18490936576014094
0.11460577923343376,-0.15089079728315852
0.10878310150723498,-0.15300565119786103
-0.09059121192803472,-0.15962684597200877
-0.08665489673979632,-0.16107885932599278
-0.08861633748974682,-0.16039077827375514
-0.08478196613474526,-0.16167307901651953
-0.07291218563216939,-0.16586080978795917
-0.07150812190911587,-0.1664049607181014
-0.06519013502366092,-0.16895232203082292
-0.06429044138558809,-0.16935358347207308
-0.019904883532441603,-0.18467729442629988
-0.0206570475108572,-0.1844445847010258
-0.02014642985091098,-0.18460327377401914
0.021725551715682943,-0.18462581096600564
0.021744665006204214,-0.18461981188589044
0.02243371252413198,-0.1844102074237654
0.10181672004971187,-0.15552872324602085
0.10254250828859515,-0.15527229613668797
0.10358996928135365,-0.15491078033870065
0.10564403735290648,-0.15418453655435593
0.09976626070905993,-0.1562665148217176
0.09957649239098307,-0.1563405922025754
0.09954019627240682,-0.15635499871813158
0.09954555125764779,-0.15636082045610122
0.11348089052416468,-0.15130350823698396
0.10954674881918805,-0.15275303268656687
0.10604931526146161,-0.15404019673550806
-0.0709760688320328,-0.16661832269466478
-0.06907810013077821,-0.16735920644878532
-0.06710303401854759,-0.16813115178444152
-0.06339355966426835,-0.16974636727818654
-0.021339668066924573,-0.18425805351035293
0.02316485311396596,-0.18420706111861046
0.06658203780651643,-0.16840352915270673
0.06854204414281782,-0.16771159431189558
0.06587595798614954,-0.16869396704272938
0.10120902641243402,-0.1557982373315918
0.09977314738084313,-0.15628547540744767
0.09202282215145642,-0.15918708011332944
0.09394080478380476,-0.15849254401841195
0.08439947102802653,-0.16196604461378616
0.08417418236708332,-0.16204420158530491
0.08624617450561492,-0.1613228113273235
0.08810512476147418,-0.16069042393268096
0.08397345278702416,-0.16212077863601587
0.11150335486498256,-0.15205173606668532
0.10771388288007258,-0.15346673516065937
0.10956989901357794,-0.1528167704773685
0.23436688019111326,-0.10773044598987548
0.23467714877133805,-0.10761568648875777
0.26010903624712434,-0.09848784196366954
0.26206561461494426,-0.09778646913999647
0.25824283130141085,-0.09917480147619796
0.2385974281994414,-0.10623255124615988
0.24055494867010224,-0.10553377224753804
0.23488783941073924,-0.10754122846885968
0.23672540736580025,-0.10689434853518195
0.36187235795932793,-0.03614168874683776
0.360274923801137,-0.03777547940082441
0.358094882509717,-0.04004540268038041
0.3537009062235097,-0.04394870257281061
0.35636599093764637,-0.041768910031121764
0.35172947305822794,-0.04590050400144935
0.3524574665637002,-0.045154106068244174
0.36418390312437154,-0.03371287090853089
0.3655960155159795,-0.032237938669260696
-0.06134487796037116,-0.17054131067402759
-0.02194511712829364,-0.18413088999495925
0.023638443450267742,-0.18411216461355273
0.02410169212743727,-0.1839604086995689
0.06928594932038654,-0.16745542459518187
0.06693005390135566,-0.16840472576178991
0.06661403947503367,-0.1684916370804053
0.103010863417451,-0.15520620354004466
0.1018410032407296,-0.1555955804362068
0.10568117876197071,-0.15428679536570866
0.10362164465661766,-0.1549979899062832
0.09424851906016996,-0.15838877333649393
