"Plane Section: Position[X] (m)","Plane Section: Position[Y] (m)"
3.5,9.459037979203734E-4
3.2699999999999996,9.520438508647642E-4
3.04,9.886660965281145E-4
2.8100000000000005,0.001046078749655768
2.58,0.0011319527424870665
2.3499999999999996,0.0012623182322935218
2.1200000000000006,0.0014466827914100004
1.8900000000000003,0.0017166013712310733
1.6600000000000006,0.002074887682388715
1.4300000000000002,0.0026358849395311974
1.2000000000000004,0.0032746458717490485
1.1760000000000004,0.0035875778140372237
1.1520000000000001,0.00373120935644897
1.1279999999999997,0.003948668077421783
1.1227251528816518,0.003999999999999905
1.104,0.004181357135508058
1.0800000000000003,0.004459940092267646
1.056,0.0047499702768211876
1.032,0.005015291840135886
1.008,0.005252031645380525
0.9840000000000001,0.005504803329376123
0.9600000000000001,0.005803863529260146
0.9359999999999999,0.006103275758878403
0.9120000000000001,0.006422364928261997
0.888,0.006767457787674217
0.8640000000000003,0.007172111457279145
0.8400000000000001,0.007619217587098516
0.8160000000000001,0.008099007133240533
0.7920000000000003,0.008662050315071551
0.7680000000000005,0.00927171516146141
0.7440000000000004,0.009959060354254144
0.7200000000000003,0.010766154614026174
0.6960000000000002,0.011551196772064547
0.6862723322746556,0.01199999999999974
0.6720000000000002,0.012661635430115094
0.6479999999999999,0.013831070952856931
0.6240000000000001,0.015322975638731081
0.6000000000000001,0.017157620895973967
0.5760000000000003,0.019957579401388224
0.5757294127936732,0.019999999999998873
0.5520000000000003,0.023247560375823685
0.5311394000128845,0.027999999999998748
0.5280000000000005,0.028914746556086467
0.5040000000000006,0.035605438078839015
0.5005794104974315,0.035999999999997936
0.48000000000000054,0.03803950960715441
0.4560000000000005,0.039268620972843706
-0.49766139548013966,0.03599999999999642
-0.504,0.03489177107013394
-0.4799999999999999,0.03865696377727477
-0.45599999999999974,0.040124334517244536
-0.5753156837805484,0.019999999999997777
-0.5759999999999998,0.01988410978208524
-0.531291066062037,0.027999999999997183
-0.5519999999999999,0.02355452010745216
-0.5279999999999998,0.028826117758975194
-0.6000000000000001,0.017217371316258816
-0.6240000000000002,0.015356676149398958
-0.6480000000000002,0.01387933724181453
-0.6870989500859795,0.01199999999999867
-0.6960000000000003,0.01160524086003618
-0.6720000000000004,0.012667042038638086
-0.7200000000000003,0.010735022875131301
-0.7440000000000002,0.009961038077491761
-0.7680000000000001,0.009267329730694593
-0.792,0.008648633903213993
-0.8160000000000002,0.00808504906965966
-0.8400000000000002,0.00760442303311346
-0.8640000000000001,0.007157394696874857
-0.8880000000000001,0.00676219033869278
-0.9120000000000001,0.006403238370925516
-0.9360000000000002,0.006081844345099032
-0.96,0.005786215016077808
-0.984,0.005491473690041276
-1.008,0.005237276241484858
-1.032,0.004998428850744535
-1.056,0.004748735803433983
-1.08,0.004516098835782295
-1.104,0.00426283097802339
-1.1280762574298282,0.003999999999999997
-1.1519999999999997,0.003777185269815131
-1.1280000000000001,0.004000721944359332
-1.1760000000000002,0.003622358712768924
-1.2000000000000002,0.003273519831103092
-1.43,0.002638883563261768
-1.6600000000000001,0.0020740178615185406
-1.89,0.0017153361829070463
-2.12,0.0014628049915276122
-2.3499999999999996,0.0012594471493578938
-2.58,0.0011317108523084905
-2.81,0.0010510684526663112
-3.04,9.85174902608672E-4
-3.27,9.505246226058549E-4
-3.5,9.461194313852462E-4
-0.3573646698370947,0.020286057260604493
-0.3548660918512016,0.016377713883746783
-0.35463431784782773,0.01594725616019841
-0.3527553293126371,0.012469695216746846
-0.34988200207376063,0.008561038070090236
-0.35073363963729554,0.009290984429747714
-0.35853580618692676,0.021635955240835184
-0.34878254811661297,0.006861491820582133
-0.3486274710051348,0.006606861992589259
-0.3606187743534398,0.024195033224205315
-0.3469486404470605,0.004652330657892644
-0.3468313584526097,0.004549216154237009
-0.3450072996957386,0.0026975795288358964
-0.3624376676178161,0.02687905416612306
-0.36331269183296877,0.02810354015478108
-0.3448798868845625,0.0025736310578169446
-0.3430510519323995,7.428159184555372E-4
-0.34292839445092316,6.229666628357678E-4
-0.3410771219518197,-0.001211962496882185
-0.36504039630316903,0.032011238095181874
-0.3409768916786258,-0.0013153498099003626
-0.3390949158238383,-0.003166747841654985
-0.3371855825970593,-0.005121472171477267
-0.3390253705736591,-0.00323177075890861
-0.36633684822393564,0.03532398158917469
-0.36658237125118015,0.03591878052810561
-0.33311283954454873,-0.009031133564183464
-0.3331708007884365,-0.00897330581305447
-0.33707392100047257,-0.005233625298554572
-0.3351710397319311,-0.007076284591140682
-0.3351223730695502,-0.007118006800718498
-0.3688279569670972,0.039826912079758046
-0.33121915599291335,-0.01074199763096678
-0.3309569026118738,-0.010986064370173238
-0.3702371347421485,0.04244806890987017
-0.37090974185536796,0.04373490648437961
-0.3026385764707839,-0.029578270341502372
-0.30248585013093643,-0.029643099279984767
-0.299264155945535,-0.030917540658862805
-0.30095384011363197,-0.03029604308602727
-0.329267472506349,-0.012464478992329673
-0.32873891838316616,-0.012941047127090283
-0.32634799533403946,-0.014896174682102645
-0.32731572259841896,-0.014107630367914965
-0.3722389686468904,0.04764227078766793
-0.3026477330892243,-0.02957766701125891
-0.29736600775686484,-0.03164756101203593
-0.29616098856956563,-0.032114649207443696
-0.32121046855763147,-0.018806727596192285
-0.32146011741740377,-0.018612546087900115
-0.3253639088252509,-0.01567450464748578
-0.3238232222111258,-0.016851414307006055
-0.3234120494618766,-0.01718692849575822
-0.37413656448888943,0.05059543659899862
-0.2936940591337218,-0.03303754050202326
-0.29547292521774887,-0.0323742881806833
-0.2915945552466733,-0.03382546798648096
-0.2895942756794333,-0.03457217613120099
-0.28575096244240944,-0.03600020499591208
-0.2877000425573949,-0.03527825017067304
-0.2838155030273641,-0.036722602571671085
-0.2818606152071001,-0.037465546040335584
-0.28151971551467403,-0.03759802610747365
-0.30280946189416524,-0.029566898552357487
-0.319508169605458,-0.02001933187422259
-0.31847902821529034,-0.020762140259283596
-0.37801178515731226,0.05545960698589621
-0.27992078619839156,-0.038212863015045104
-0.30326211512306156,-0.02945333589909365
-0.305020992448634,-0.028744770174504986
-0.30497811601301994,-0.02876647471312492
-0.3175562403315909,-0.021448258522366936
-0.3156273056145317,-0.02271765363224369
-0.31560419144322704,-0.02273432423878823
-0.3136520792943251,-0.0239448350790272
-0.31250385706982087,-0.024673394515693014
-0.38194097107494496,0.06026503209860627
-0.2780627745698965,-0.03893131251066589
-0.3050501413469114,-0.028730827792774367
-0.30584320275987786,-0.02827577203184594
-0.3056321227342893,-0.028585399445923428
-0.3117000049208568,-0.02520046281160486
-0.38447659411976365,0.06327752257511203
-0.2760391109386188,-0.03970196904230286
-0.27232187295418886,-0.04114411672004031
-0.27409818844739575,-0.040446289507326094
-0.2720636482406714,-0.041259475486178004
-0.3097477587499166,-0.026250905164241452
-0.3090912308957037,-0.026629377521602784
-0.30779555927835056,-0.027357122656059444
-0.3897460433415204,0.06913957568367014
-0.3916985424525461,0.07109607210144847
-0.39755241549041087,0.07646161187609907
-0.40049324160466404,0.07891593845951536
-0.4053596540642113,0.08274883820870237
-0.4117736391177461,0.08673788604142285
-0.4131680389697796,0.08766694943061595
-0.2605252588369304,-0.045693603559073495
-0.25859404352787896,-0.046464524966374335
-0.25761451707977534,-0.04684836405395683
-0.27024008412498995,-0.041999987826476945
-0.26824663333275467,-0.042758507630314385
-0.26440485984369844,-0.04419881338128527
-0.26247886450667707,-0.04493881898815739
-0.4288274531700189,0.04657107759992366
-0.427901769829381,0.04768887609984401
-0.42779911960571215,0.051595041522112604
-0.42097664811687086,0.09231723898826702
-0.2567402617517402,-0.047185496948887275
-0.2663507374963424,-0.043468071724240706
-0.4327346137906496,0.045485118070684324
-0.4249147563343262,0.0542691854708648
-0.4233623441595532,0.055497578070990594
-0.4250682453454724,0.0945615200786038
-0.42878562642027873,0.09652662871369153
-0.43659532694187675,0.09987344107911408
-0.22554493561831923,-0.05823502458249735
-0.2252555773949233,-0.058320846903224685
-0.25470800865369647,-0.04794168418466718
-0.2527572879914461,-0.04865915436740928
-0.25096976597660225,-0.049315448666583404
-0.4366417944567538,0.044375217359707446
-0.421609954707572,0.05940236220073327
-0.4431567289252489,0.10238916793015725
-0.21549945771912737,-0.061759085308828066
-0.21362768612619426,-0.062412490673135694
-0.22332619299354295,-0.05895456878980418
-0.221361022305802,-0.05963244104521048
-0.21942630006902591,-0.060331814455326066
-0.21745473006727267,-0.06105408827553997
-0.23318211675967998,-0.05564761031827751
-0.23120658130316835,-0.05629707962305584
-0.22940906635657354,-0.056915051250687146
-0.2272766049898592,-0.05765382452694249
-0.23496154085293192,-0.05511485915751347
-0.23713970031874249,-0.05436651854814766
-0.23526233274424688,-0.055013745606550375
-0.24885502947541566,-0.05009185535325318
-0.24685621899546276,-0.050827729775776466
-0.23909613681354652,-0.05366471166805745
-0.437586336764056,0.043790733418258704
-0.440551616937603,0.040110079567102545
-0.42216610866795995,0.06330907922611584
-0.42569005595769127,0.07112453249267087
-0.42880387909741524,0.07472664302601623
-0.43307695817953007,0.07894322013148919
-0.4366102423558652,0.0820592974878177
-0.442952292298437,0.0867639912828679
-0.4444175574410485,0.08825514286554273
-0.4444052363172004,0.10297081013675699
-0.4522167217162076,0.1041858638749591
-0.17640637239012077,-0.07581415865112988
-0.1783263747368844,-0.07509125231349507
-0.18027980740736693,-0.07438121394498995
-0.18116417373732702,-0.07407913975164156
-0.18220649502045275,-0.07372412661358674
-0.18420832314693178,-0.07302046657808181
-0.1900607977668697,-0.07086891274995269
-0.18810864075067163,-0.0715824468400102
-0.18633564431602906,-0.0722453613669718
-0.20013184232332015,-0.06729798466871988
-0.19985475332996833,-0.06739214057112859
-0.1979190926377275,-0.06808055120056303
-0.19397899016324244,-0.06947987595244025
-0.19211228672667774,-0.07013796699997285
-0.20963198832967433,-0.06386954842786678
-0.20785210030962487,-0.06452476414297106
-0.20573089115395618,-0.06530543187662931
-0.20373552924386215,-0.06603480527112103
-0.21157905795020868,-0.06314207316353702
-0.2449527984789287,-0.05152463175196932
-0.2430012794837823,-0.05223991423416564
-0.24106719776082994,-0.05294941222950474
-0.44445770126327944,0.040309587069796315
-0.45031955685506886,0.037349358673971544
-0.44958240868913935,0.037941400427384774
-0.44836493785257464,0.03913289479127247
-0.44686416812898816,0.03989225018538842
-0.4522262353162564,0.09282334738823585
-0.4600341529448325,0.09829954834654298
-0.4565155298833739,0.09458785023954641
-0.4600285757424766,0.10496064965361532
-0.46784259084857127,0.10315436148309504
-0.1597505394809931,-0.08179970758811733
-0.1587716833881186,-0.08213583002833882
-0.15682436736146088,-0.08286263005705993
-0.1566637114835658,-0.08292614891180061
-0.1620975522630193,-0.08103690686711779
-0.16070258431582615,-0.081482282405271
-0.12945785732889323,-0.09275260076351025
-0.1276095141405151,-0.0934331029455651
-0.17637040545310398,-0.07582847554101065
-0.1744425493183184,-0.07657446618285801
-0.17249757701738958,-0.077307688807953
-0.17064375577645585,-0.07799183080907354
-0.20181806029347366,-0.06670916108480446
-0.1959380802246628,-0.06878534073686998
-0.4522732186149271,0.036709100101185124
-0.46784397155050245,0.10150532763940831
-0.47091331528010844,0.10241240794583482
-0.14590782275317443,-0.08685117406672577
-0.14500500143930817,-0.08715982848880263
-0.1432366815785672,-0.08778993510317816
-0.1426313551592373,-0.08804681842934498
-0.15566419249332403,-0.0833845602837448
-0.16860985574949333,-0.07878022674053559
-0.16775241103946092,-0.07911384530811913
-0.162728889737412,-0.08085370457661187
-0.1265607952961852,-0.09384882112081416
-0.1314188160852378,-0.09206318640021821
-0.1066755741800544,-0.10106368026776584
-0.10612934804364252,-0.10125492856143281
-0.4532034581693878,0.03599130657263578
-0.1470741896072418,-0.0864593681484132
-0.14289174546795436,-0.08804546531177317
-0.14291158610255017,-0.08801199800484646
-0.1488923212556122,-0.08585574287219319
-0.15103366658450354,-0.085183464980598
-0.14915032459529876,-0.08577741009461624
-0.15496047579703756,-0.08373086244238534
-0.16657281489974404,-0.07957655055777504
-0.16453969821615114,-0.08028622436140605
-0.12557400503401733,-0.09423574098280221
-0.1321355313605952,-0.091814495568246
-0.13425284934052795,-0.09110429205364229
-0.13341766557872037,-0.09138196675287778
-0.10494708235847933,-0.10169443929194885
-0.10799168443199195,-0.10062217702423887
-0.45422857820814616,0.034041043479031315
-0.14243629636629357,-0.08835216948642532
-0.15420445946050848,-0.08405774646570954
-0.15186575357473953,-0.08491118402550255
-0.1648046229538501,-0.0802062914222928
-0.1080905572548538,-0.10058895675694476
-0.12464281316284895,-0.0946111741609795
-0.13564945066204756,-0.0906883142669033
-0.13537271241392274,-0.09077199037933065
-0.10475789677676572,-0.1018051069549524
-0.45423017704036195,0.03403904053851872
-0.45618207669976796,0.03359578343128155
-0.14130972025998512,-0.08885208600719129
-0.1530074513818415,-0.08452919828118396
-0.10920263644326794,-0.1002455836960764
-0.12398224010260245,-0.09494589781778888
-0.13934632204519792,-0.08964503182223775
-0.13698556252807756,-0.09034124430525194
-0.10599849077641631,-0.10141483643359375
-0.10616814097208334,-0.10136123422583798
-0.1066448821485847,-0.10127262430178892
-0.45813528758014366,0.033494030308660376
-0.1112233624762515,-0.09960185111809977
-0.10997490652435907,-0.09999377168558188
-0.12359168833337326,-0.09516648155739349
-0.11779433272609044,-0.09730933239057626
-0.11874872896414482,-0.09699620627807311
-0.1373930707922909,-0.09024535094794839
-0.09722712474418227,-0.10470934028518755
-0.09628866434757125,-0.1050247104791234
-0.1065894023481037,-0.10143337219075343
-0.4597453079829999,0.03209053255899226
-0.46008991527053034,0.03170011786391409
-0.11587865183403634,-0.09798271678230946
-0.11393186240035091,-0.09871095985280764
-0.11199674100288315,-0.09936705446976654
-0.12313565343296484,-0.0953953354133313
-0.1198230650659724,-0.096665533888538
-0.09435827916311777,-0.10570376744263923
-0.09829422231168725,-0.10436337367317916
-0.09242113326580415,-0.1064584370445325
-0.10629867386124685,-0.10171893822158894
-0.09972497660247366,-0.10393832965183078
-0.4620306508298109,0.032092446029284905
-0.4676992380678189,0.03600344358933798
-0.4678986464685287,0.036204636599011575
-0.462031531115293,0.03209262480310028
-0.46205389084317033,0.03209582076140196
-0.46399539311258453,0.03262397578498005
-0.12187762621714457,-0.09594599757623534
-0.09234820429889415,-0.10648974969221174
-0.10619621401894809,-0.10178760737951317
-0.10040863942438333,-0.1038008118808589
-0.06508384343992127,-0.1164284809398441
-0.064969845286868,-0.11648062543630915
0.005976443147705465,-0.13826725840181459
0.0061838702115377155,-0.13819224643433478
-0.0026389639448339795,-0.13896019063306358
-0.004077056923539491,-0.13843698585944492
-0.0064417969092973185,-0.13757726880719903
-0.00456416048321818,-0.13826013257179767
-8.848623155636769E-4,-0.13959913200616464
7.038346032213002E-4,-0.140180026533838
-0.010314308387118457,-0.1361681462718615
-0.010542343374388913,-0.13608590506876
-0.008383748574429271,-0.13686998362241792
-0.47180237482020054,0.039217988836581855
-0.0910981156938094,-0.10708643269781723
-0.08547315062714832,-0.10913908775363859
-0.08475866646730515,-0.10937672345061733
-0.08270052672610675,-0.11013621020420794
-0.08254670707512732,-0.11020700179068019
-0.1048884388750893,-0.10258096912198975
-0.10104604732271305,-0.10366699962143062
-0.06880884030668992,-0.11507970428509981
-0.0670150640455989,-0.11565757404705986
-0.06327169679794825,-0.11717979270493473
0.011794233715706101,-0.1361761048737501
0.011733264223549473,-0.13619796375137605
0.007856749491347924,-0.13758982707286077
0.009060765232123272,-0.13715608757181819
0.004050006108635512,-0.13896560536918004
0.0028835976889564166,-0.1393903190415151
0.0018258177846809261,-0.13977431676251184
-0.012209066960410745,-0.1354900213346933
-0.4757083585451636,0.03953764823928505
-0.09056517305636103,-0.10732295086475498
-0.08859195347084636,-0.10809139829206647
-0.08662693996022519,-0.10876970126561673
-0.08127979805712851,-0.11088007401542947
-0.10438496027587006,-0.10286474150200908
-0.10212777595394695,-0.10358838670330589
-0.10232634458955386,-0.10357861250019886
-0.07028898848344631,-0.11468007277722142
-0.06903513554754331,-0.11500898194182937
-0.06120300903201735,-0.11791989118387873
0.013711480630320308,-0.13549684215408073
0.014055902435346115,-0.1353735597188272
0.009800316301301392,-0.13689130839319474
0.0022946521366017853,-0.13960556436397453
-0.013464786002554519,-0.13505028830514618
-0.012290641472609738,-0.13546076442125535
-0.47961524617519913,0.03877773354524333
-0.48352236028571943,0.03774732313794085
-0.08076926732573225,-0.11119128745877174
-0.060827755411277766,-0.11813265384566435
-0.07501920308821988,-0.11342528393390036
-0.07565514692462261,-0.11324874462086601
-0.07100793383493434,-0.11447317840953852
-0.0729751462968189,-0.11391059691124267
0.0157755876087827,-0.1347688123034824
-0.014234909972615083,-0.13479700918641913
0.016851677090701806,-0.13438636772640603
0.01754719048673215,-0.1341433728551087
0.019135246188205068,-0.13359898609854254
0.05280426024653823,-0.12136318303569829
0.0540078764937997,-0.12093944273760632
0.05085251052117968,-0.12207785293667406
0.05055197920168579,-0.12219401061032875
0.10218354716632941,-0.10340899378599108
0.101731773577505,-0.10356989660450028
0.10416729714259476,-0.10273045319285627
0.10350221817388643,-0.1029442397488115
0.1014358032036338,-0.10368044153842985
0.09191572672546086,-0.10716728739144293
0.0938364649797045,-0.10648034294792559
0.08992784105465688,-0.10789556660939807
0.08976799593530546,-0.10795772100705132
0.35630238297623285,0.014695144226169552
0.3543277001462093,0.011877669220445902
0.35151340653965857,0.00797377420108922
0.35239132663189615,0.008956348268289498
0.3596120304314235,0.019685747498364995
0.3570043281294172,0.015781679504385374
-0.48742875351549353,0.03757789271943385
-0.07958058393178591,-0.11181627917023497
-0.059408112138747055,-0.11886146165917112
-0.07301262869456186,-0.11390361567141148
-0.0770737936453304,-0.11290637173404258
-0.014366709080862227,-0.13476518985583336
0.019615131753990486,-0.1334867238513894
0.05672975942311029,-0.11999444480977148
0.05791212258820244,-0.1195845216455092
0.05474089330677935,-0.12068523942369844
0.051433117310079046,-0.12193654521045655
0.05086286357995778,-0.1221063720047093
0.10529282902333059,-0.10238426739733432
0.09992068747004017,-0.10427206731294722
0.09386052904506273,-0.1064720401191193
0.0899326593426778,-0.10790883931332104
0.14467653243660966,-0.08818071489395904
0.14477253662857675,-0.08814304229816783
0.35043596884582434,0.006290450009371806
0.3502719079128013,0.006021687997609745
0.34838102811925387,0.004070145507566139
0.3484810691855174,0.004171711764486874
0.3602135108193716,0.0205193343675546
-0.4913350773618469,0.037491329960962244
-0.07909704830528314,-0.11208694416022008
-0.059205470462263314,-0.11893540940050264
-0.0574854297247588,-0.11955090127060924
-0.059255030767772124,-0.11892135212456552
-0.05541581560130703,-0.12025033741513078
-0.05345867797101629,-0.12102823065396828
-0.05339352486014792,-0.12105629715410991
-0.014687559866082014,-0.1346734590696254
-0.04278793072579961,-0.1252426071073829
-0.0437994192304384,-0.12479610970002197
0.019619213201551144,-0.13348570267410764
