"Plane Section: Position[X] (m)","Plane Section: Position[Y] (m)"
3.5,0.002480136344130481
3.2700000000000005,0.0024977332041509525
3.04,0.002589808775683734
2.8100000000000005,0.0027319698416177476
2.58,0.002919377161469508
2.3499999999999996,0.003217105017334876
2.1200000000000006,0.0037057601313583307
2.027302713432755,0.003999999999999764
1.8900000000000003,0.004435984279098162
1.6600000000000004,0.005456124994846842
1.4300000000000002,0.00729809000604632
1.2000000000000006,0.009672946770281132
1.1760000000000002,0.010702992980547218
1.152000000000001,0.010835784612640911
1.1280000000000003,0.011604121554223806
1.1182442724468313,0.011999999999999829
1.1040000000000003,0.012578376194396074
1.0800000000000005,0.013501243319840983
1.056000000000001,0.01456636190441228
1.0320000000000005,0.015660142535020353
1.0080000000000005,0.01642824922795845
0.9840000000000007,0.016947463787940046
0.9600000000000005,0.01766904887495678
0.9360000000000005,0.018565418450285608
0.9120000000000006,0.019597712759968234
0.9045178905202828,0.019999999999999393
0.8880000000000005,0.020877310115804775
0.8640000000000005,0.02217573878925904
0.8400000000000005,0.02357273624338798
0.8160000000000005,0.025157919980644462
0.7920000000000009,0.026926140366283408
0.7797436200787202,0.027999999999998953
0.7680000000000009,0.029041471497006262
0.7440000000000009,0.03133161353014617
0.720000000000001,0.03390814118506469
0.7033867878151973,0.03599999999999828
0.6960000000000007,0.0369742452923395
0.672000000000001,0.04070114295141995
0.6551842882234062,0.04399999999999803
0.6480000000000008,0.04550660937074843
0.6240000000000003,0.05118415617979141
0.6213512801245502,0.051999999999997354
0.6000000000000003,0.059430317912758254
0.5984882575784438,0.059999999999996625
0.5815158938297055,0.06799999999999568
0.5760000000000005,0.07040351332445693
0.5637907718428357,0.07599999999999517
0.5520000000000003,0.08151264855982629
0.5464617200356121,0.08399999999999452
0.5368313374032445,0.09199999999999389
0.5279999999999998,0.09819741420299374
0.5250353225272695,0.0999999999999931
0.514002670839923,0.12166666666665987
0.515361334995768,0.14333333333332648
0.5231437993998445,0.1649999999999934
0.4542052582246199,0.12166666666665892
0.4492670324759239,0.09999999999999223
0.47018185617274033,0.14333333333332593
0.4559999999999991,0.12427544565985416
0.4965830350502603,0.16499999999999304
0.4799999999999979,0.15285607500357637
0.5039999999999971,0.1711484108715784
-0.4340723763251706,0.06799999999999318
-0.4319999999999998,0.06477316788279927
-0.437933652290216,0.07599999999999242
-0.4425999390257489,0.08399999999999189
-0.44735081538622723,0.09199999999999128
-0.4486797273053139,0.09999999999999065
-0.6220141916051853,0.05199999999999577
-0.624,0.05139120545812601
-0.598896467998812,0.0599999999999951
-0.6,0.05958626381746167
-0.4523940195554643,0.12166666666665743
-0.6552495568369227,0.04399999999999654
-0.6719999999999997,0.04070152632925402
-0.6479999999999997,0.04554229072841874
-0.5820179846388258,0.06799999999999434
-0.5647477333584313,0.07599999999999374
-0.5759999999999998,0.07072389110404945
-0.5472112705966686,0.08399999999999289
-0.552,0.08191409440616762
-0.4560000000000033,0.12859143483835705
-0.7038493697525243,0.035999999999997374
-0.7200000000000001,0.033921891853228685
-0.696,0.03705652072588686
-0.5364802584435056,0.0919999999999924
-0.522776279949536,0.09999999999999173
-0.5280000000000004,0.0971715010435186
-0.4644986743789682,0.14333333333332454
-0.744,0.0313332677839149
-0.5113622488515637,0.12166666666665799
-0.48000000000000714,0.15889748527864517
-0.7799317389189846,0.02799999999999816
-0.792,0.02692603163242481
-0.768,0.029069598955582795
-0.5151481307942535,0.14333333333332487
-0.4901190224820253,0.1649999999999915
-0.8160000000000001,0.025163498600742337
-0.5256329248619607,0.16499999999999204
-0.5040000000000091,0.17325332185823644
-0.8400000000000001,0.023651312511155813
-0.864,0.02229351155856081
-0.9073406102598625,0.01999999999999906
-0.9119999999999999,0.01973442697903489
-0.8879999999999999,0.021070771101403332
-0.936,0.018576778718045313
-0.9600000000000001,0.017596272271280612
-0.9840000000000001,0.01700109136506232
-1.008,0.01705622633978711
-1.032,0.01665080808093914
-1.056,0.015288084536218941
-1.0800000000000005,0.013707646960969986
-1.1105025107923276,0.011999999999999789
-1.128,0.011235111824188748
-1.1040000000000003,0.01230053587156306
-1.1520000000000001,0.010741989422855366
-1.1760000000000002,0.010652418504206899
-1.2000000000000002,0.009474254465476232
-1.4300000000000002,0.007201223091500442
-1.6600000000000001,0.005454726462169521
-2.0268085849938386,0.004000000000000151
-2.1200000000000006,0.003703528350222556
-1.8900000000000001,0.004435238548560339
-2.35,0.003206876353863296
-2.58,0.002921588018127721
-2.81,0.0027181640072869648
-3.04,0.002579128658286701
-3.2700000000000005,0.0025002049604844834
-3.4999999999999996,0.0024792916202919704
-0.355306071538946,-0.05785599122315735
-0.3584539302327487,-0.055496464965737145
-0.35454947013297505,-0.05853765970365797
-0.3623578087884126,-0.05146755026327464
-0.3599734889689374,-0.05394699249080209
-0.3637294597145287,-0.0500385303947925
-0.35153830812229925,-0.06176446026238627
-0.3494985417969221,-0.06371878656284406
-0.35064558921716915,-0.06256256583761408
-0.3662615908520373,-0.047274749254449425
-0.3673292617416596,-0.04613016024691441
-0.34869357669537293,-0.06445262243982593
-0.3475134518462759,-0.06567308067126049
-0.3455323099582151,-0.06762737245517064
-0.3467416180475544,-0.06643418096613504
-0.3699190815322879,-0.042222384750601596
-0.3447896267622356,-0.06836030651908984
-0.3435338272632606,-0.06958167444889057
-0.34149798078806465,-0.07153599844144586
-0.3428376210010661,-0.0702618456624742
-0.37016466294853545,-0.04187610901699791
-0.37259508289048404,-0.03831455851279679
-0.3408855864379808,-0.07211446637268484
-0.33915634975588704,-0.07349050247207409
-0.3389333808425171,-0.07367659819643045
-0.3369810457932162,-0.07501885997051233
-0.3364711106634761,-0.07544520881031067
-0.3342309129656701,-0.07739965311960921
-0.33502887551213467,-0.07664097126762126
-0.3740678855670573,-0.03673312194065226
-0.33218558302080037,-0.07935398269578792
-0.33307684336153326,-0.07849768947146694
-0.37621705176662834,-0.03440617531365465
-0.33112481643516745,-0.08036328074226387
-0.3301096136799647,-0.08130833031165223
-0.3779716491076084,-0.0325088605257185
-0.37983209863351886,-0.030497796189999864
-0.3291727628332217,-0.08218356499268545
-0.32796981751763954,-0.08326271550711149
-0.32536253204972543,-0.08521737594825274
-0.3272206680218336,-0.08393385735283494
-0.3226492712089008,-0.0871720987849619
-0.3233159839341141,-0.08659462115535471
-0.3818753292845068,-0.02814301065674417
-0.38323741304371484,-0.02658954055143859
-0.30257720006148026,-0.099919576768534
-0.3021464639750856,-0.10012073182077809
-0.30090866667534194,-0.1006894983241738
-0.2992075093636946,-0.10131717661404296
-0.3203608129688137,-0.08912657150883017
-0.32136383372363947,-0.08825082128757196
-0.325268339454799,-0.08528712888886876
-0.385610041295929,-0.02268189293192295
-0.29360376011039163,-0.1033750907227427
-0.29539098348532883,-0.10273349685705596
-0.291493694840272,-0.10413422538546611
-0.28948328327742795,-0.10485315712421407
-0.2875802753794551,-0.10553517549177607
-0.28562729518698393,-0.10624644164840855
-0.28369159813875466,-0.10696819866268677
-0.28173177453340226,-0.10769762631430117
-0.2797795333278537,-0.10841093049379111
-0.3027597174912187,-0.09986113825173086
-0.2972978051715841,-0.1020367628801881
-0.3194117097043841,-0.08995150571498024
-0.31770826037597427,-0.09108125860207905
-0.31474061899365696,-0.0930361312115317
-0.31550691499987116,-0.09242439313187045
-0.3857782229617325,-0.022441335325827438
-0.3887678350799455,-0.018773783027137413
-0.27790581173623885,-0.10908632389396006
-0.30374415154715717,-0.09951325584090723
-0.3047940165684415,-0.09905131275093755
-0.30474286833564135,-0.09910605279074439
-0.31745935137911513,-0.09125423457154086
-0.31355469355124105,-0.09395959925069888
-0.3118732983129474,-0.09499094475470976
-0.38968165968458723,-0.017661992438614004
-0.2602499753005414,-0.11552437480208153
-0.25829956245879615,-0.1162426931819458
-0.2564341961177803,-0.11693192554710799
-0.2758677122320496,-0.10981741286045157
-0.2739108029698889,-0.11051791511760688
-0.2721156320269229,-0.1111640661430989
-0.27000423685198993,-0.11193880901016154
-0.26800297149321184,-0.11267591910494851
-0.2641545512514139,-0.11409802297148981
-0.2622164223549206,-0.11480477838912245
-0.3048796212426196,-0.09900145994062697
-0.3057447748118035,-0.0983460249270461
-0.30535873859193763,-0.09890103103696002
-0.3116022783046591,-0.0951656504659618
-0.3917087965256907,-0.014865800787647427
-0.23679911335532167,-0.12401829529029723
-0.23493385348671453,-0.12469870153333579
-0.2387521475136179,-0.12330716574587167
-0.2544027014654092,-0.11769020291494905
-0.25245119505041264,-0.11840552222245329
-0.2506560093709471,-0.11904080218079473
-0.2661047657594359,-0.11337916067085654
-0.30964978916956265,-0.09624620619119229
-0.30858819309895125,-0.09694600427868504
-0.30769742025948194,-0.09753095733597947
-0.3930344015826099,-0.012052519706265512
-0.39352066784552925,-0.010958483240076117
-0.3955280752347793,-0.007051050740518792
-0.41076384142987143,0.01639542374891384
-0.41309733325165654,0.019415875536888425
-0.45035303012708006,0.11798125044764178
-0.45209977178144584,0.12143840325794346
-0.2309429724188538,-0.12615980580124855
-0.23289515714521333,-0.125446346730304
-0.22915673718773086,-0.1268086858027903
-0.22703922481981612,-0.1275884293471775
-0.22503976666278125,-0.12831455703395506
-0.248536361666996,-0.11980374353412658
-0.24653131510726672,-0.12052252040737753
-0.2424547942743807,-0.12197491201763991
-0.24072269580586908,-0.12259046289699067
-0.3974864919381804,-0.004636456701665175
-0.4019168466315806,7.652121578132717E-4
-0.4052927891996442,0.00590084559178921
-0.4069865006848714,0.008580698393777873
-0.4166755935573024,0.024211405790565202
-0.42090356617462554,0.030062453125415722
-0.44561907992162764,0.10235346051142359
-0.46002829538352286,0.1336119497030942
-0.4677101717484262,0.1462403376846247
-0.21373240216914044,-0.13244816318574776
-0.21531843870914308,-0.13184812790336123
-0.22312973132087358,-0.12900129503705968
-0.2211742242388993,-0.1297056427064339
-0.21923795631466161,-0.13040077280107415
-0.21726539069906964,-0.13112031830267087
-0.24462287502249752,-0.12120565821302035
-0.2426641403403385,-0.12190115434303891
-0.42243706663777647,0.03202729935177136
-0.4424211928692596,0.08672657496965955
-0.21346513154365204,-0.13255215105900287
-0.4247104808852767,0.039841139233663135
-0.4292401508313832,0.055468808894916496
-0.4365046330830569,0.07071606252442351
-0.43671278137122554,0.07109821129568719
-0.2094742382474375,-0.13402238459602275
-0.20768890813571653,-0.13466267969069332
-0.20556450125720316,-0.13543458252264923
-0.2035683552871695,-0.1361618066988194
-0.2114269019417066,-0.1333102390716855
-0.17629556229578014,-0.14609560598802346
-0.17822042315412054,-0.1453860085312996
-0.17236099148861114,-0.14751849437504758
-0.1743164856784397,-0.1468141113495743
-0.17050167512914144,-0.1481875716658298
-0.184088723638144,-0.14327784499870175
-0.18209395107744816,-0.14400083648433895
-0.18003564946134729,-0.1447352510218058
-0.18800404031500373,-0.14188094909609672
-0.18997352999512626,-0.14121494803428128
-0.18621557671103112,-0.1425014566657782
-0.20166019386567602,-0.13686167086441398
-0.19970832561442747,-0.1375759978532626
-0.19778014172771646,-0.13828490121904302
-0.1920236444164561,-0.14048024453064004
-0.19386689572633126,-0.13975785271171012
-0.16844917403030316,-0.14892498671736593
-0.16639282212750928,-0.1496683871871618
-0.1625926463160848,-0.1510654365088226
-0.16060074397323054,-0.15178828778366654
-0.18017698216853661,-0.14468454573639886
-0.19580848879788526,-0.139015346533352
-0.1586861088484629,-0.15248640897340338
-0.1576594395704079,-0.15289444840062344
-0.16463028733901766,-0.15031363213857013
-0.15092122948510223,-0.15546052795642534
-0.14906670421462748,-0.1561334381288032
-0.15677690903668018,-0.15331775211941678
-0.15486053378857767,-0.15404217884977928
-0.14495731487673247,-0.15761431491172465
-0.1470117345592472,-0.15687338973306467
-0.1431957103625225,-0.15826282786360055
-0.14115857624786052,-0.1590230799508685
-0.1528765995924848,-0.1547558046407845
-0.1391698800867434,-0.15974669965435137
-0.12944543500086444,-0.16330374418049545
-0.12759332222519412,-0.16397391272052375
-0.12602598392754288,-0.16456967101279862
-0.13725341977171462,-0.16044783971860696
-0.13640243071917366,-0.160786033038526
-0.13090091599392908,-0.16279208968282155
-0.11967780113755423,-0.16685263704579953
-0.11766266062269265,-0.1675336448940624
-0.12554867430333633,-0.16475152897010972
-0.13532019093689535,-0.16121328441667276
-0.13340288688774962,-0.16192669826180378
-0.1314065004745065,-0.16261464013477037
-0.10793904712421426,-0.17106305948713227
-0.10609046843792666,-0.17173350911642027
-0.1157443636014159,-0.16819983735734478
-0.11378476775035268,-0.16889297177278853
-0.11186809570478144,-0.16959962892170044
-0.10988869814031271,-0.17034265183680244
-0.1235075099513745,-0.16552102417139866
-0.12109519638627082,-0.16636761932389604
-0.10403177685408785,-0.17248202227585166
-0.10199472794368436,-0.17325501386662412
-0.0030095929447717185,-0.20901551185388248
-0.002512085007751831,-0.20919666793414332
-0.00631466073113731,-0.20781366747234675
-0.00443701576249067,-0.20849628657689512
-7.583181560708958E-4,-0.20983563089217558
5.88377295162124E-4,-0.21032746546405626
-0.012158929315244532,-0.2056847363517701
-0.014215220425904477,-0.20493496928359983
-0.010186850701452985,-0.20640377276414124
-0.008256860613268871,-0.2071071533600303
-0.12174120143433678,-0.16615736205963627
-0.1004828691684963,-0.1738836395537138
-0.10026411028236402,-0.1739899664937599
-0.09917394387835177,-0.17457165664265767
-0.02027218823748209,-0.20274696631638306
-0.020093541658761236,-0.20281105575983885
-0.014272762692879049,-0.20491402343173212
-0.015981054124879455,-0.2042935996769088
-0.01796496901674766,-0.20357593036921887
0.01382622658512126,-0.20570499996248245
0.01579353014976111,-0.20499290549717872
0.009921406378980344,-0.2071168657559883
0.011132408512758126,-0.20667808879140703
0.011852448329223175,-0.20641832899060691
0.007979891728259528,-0.20782094557855102
0.006101262401275665,-0.20850301744074162
8.299191634694288E-4,-0.21041642798695825
0.01765143444981191,-0.20432260512585174
0.019690427930740675,-0.20358621240724367
0.11722972667079853,-0.16815309808792372
0.1154137688466038,-0.16880871675149345
0.11349350758632094,-0.16950552383221218
-0.09829834443869398,-0.17496005504473394
-0.09633218418187987,-0.17572939030940443
-0.018019640556971514,-0.20355607349750904
-0.02147247999334586,-0.2023277960321757
0.015884263323961666,-0.20496025377184468
0.00417543272796639,-0.20920297573851654
0.002420341823437596,-0.20984319709365876
0.020594610587704777,-0.20326098416564764
0.02176418584928192,-0.20284083197645858
0.023259259431212754,-0.2023114003855695
0.1173694034717688,-0.1681047441229313
0.11150710435218882,-0.17022933668532791
0.11101534606254884,-0.17041080496799282
0.11848968795419718,-0.16771384236304615
-0.08652829443741814,-0.1790846497339951
-0.08786489741476416,-0.1786953551024257
-0.08465521801087868,-0.17967844934426924
-0.08260618667240544,-0.1804629214016763
-0.08172175411739359,-0.18093537335993098
-0.09440404305146177,-0.17641458437532384
-0.09245045759207933,-0.17712420200289525
-0.021939766805821916,-0.20217236819253032
-0.022426875442719152,-0.20200753901588278
0.02360614549983494,-0.20219051140630215
0.025329426444856088,-0.20158704037379938
0.11737839588283956,-0.16812949590248713
0.11598783597973764,-0.16865051333343764
0.11092859560704418,-0.1704608144732349
-0.0905387717268091,-0.177836018651897
-0.08852729827078923,-0.17849958982772135
-0.08063927092235654,-0.18142045174549032
-0.023290631087780983,-0.20173420814906112
0.025568788468796372,-0.20150582937503544
0.02712531983644866,-0.2009761945217737
0.11544042787332669,-0.16888209622081887
0.11254047910378119,-0.16990295051544763
0.11151992435142463,-0.17026462397284256
0.11352060622529356,-0.16958011334247594
-0.07891806050877886,-0.18218194656896575
-0.07772840999838226,-0.18270759642870266
-0.07691500905867053,-0.18305683594584904
-0.0749529512021726,-0.18382935753682003
-0.02405149545754395,-0.20151920852801666
-0.023927109084832785,-0.20155532703044343
0.029358226583137716,-0.20022738448824032
0.027585256555131242,-0.2008304434957866
0.11660592532643263,-0.1685299809752978
0.11544866585525726,-0.16890477142005575
0.11225751621448135,-0.1700147910397652
0.11352735556848839,-0.16959869103576797
0.11980357174513592,-0.16746188405966628
0.11935147647310815,-0.16761419996802335
0.1879933715362356,-0.14282666565686816
0.18817715192734982,-0.14276194520341676
0.18748912194816464,-0.1430119089754506
0.21525408463667334,-0.13290797203222018
0.21712220868663556,-0.13224463711505374
0.21055461786982899,-0.13463213114764114
0.2112591931454635,-0.13436725771360458
0.21320589247799165,-0.13363869052508248
0.2601082217968804,-0.11665278493667945
0.262065312865935,-0.11595282119714763
0.2582367494207709,-0.11732524368583495
0.25582997985688477,-0.11818342890368347
0.25423383850335923,-0.11874411558445205
0.2524426237503589,-0.11939026689245281
0.2500528114842205,-0.12028229500224963
0.2503294472096636,-0.12017099254576362
0.2386188409454733,-0.1244586908430729
0.24057177774086475,-0.12374729238767097
0.2367558132860883,-0.1251452461676707
0.36080559784718297,-0.05437136867963212
0.36029652362101616,-0.05493719880901714
0.35744559449732466,-0.05827564107309374
0.35259214885210205,-0.062179034166158914
0.3563876592186239,-0.05937646431683313
0.35247971593920624,-0.062251254300381385
0.35078469936218415,-0.06413109532489979
0.273931379088665,-0.11159350499950324
0.2746074360982972,-0.11136151135165276
0.36374899466515176,-0.05046685099894993
-0.0730268899907229,-0.18452831999177413
-0.0710738528579601,-0.18523944137888881
-0.06917022232789252,-0.18596480890519884
-0.06724807963475354,-0.18688190592610118
-0.06627811436798131,-0.18735695176361292
-0.06536839051897747,-0.1877941807463451
-0.06352783984401578,-0.18846765733229082
-0.0249267589840919,-0.20129371462133197
-0.043665888749638865,-0.195015663069595
-0.041833523435809296,-0.19570200490819203
0.02950897843711495,-0.20017748893474147
0.07480774411128321,-0.18371541090833043
0.07443730174547339,-0.18384498839331598
0.07418716607105111,-0.18394086914775631
0.09208080565856631,-0.17751394745531912
0.09399798231418766,-0.17681719239649135
0.07638115793168727,-0.18319501363561402
0.07763022726309331,-0.1827836121601601
0.1174266510812925,-0.16826231923814172
0.11154382944315047,-0.17033042318461536
0.11424104794591461,-0.16948276901084625
0.11372897394029308,-0.1696340610458638
0.1135593099434104,-0.16968664604999562
0.11057908668937136,-0.1706886516659153
0.11125313871180932,-0.17047466765112426
0.12135910312303153,-0.16691268001031045
0.1234121395086904,-0.1661890587965582
0.15080149764894699,-0.15634064435327952
0.15080858301040187,-0.1563380810181326
0.14784179005999093,-0.1574159275933893
0.14874570472018295,-0.1570783039702314
0.189779005441498,-0.14219846793021007
0.19175057602889575,-0.14153835933556094
0.19381674657033393,-0.1408478877946761
0.19568112754571063,-0.14018348887735008
0.18586826178749066,-0.1436078599010584
0.18388003004221987,-0.1443488452315211
0.17810085630357853,-0.14649645371632178
0.1800275511513447,-0.14579187516758507
0.23276368220286883,-0.1266029374265391
0.2347174668918958,-0.12589387281419392
0.23097440208496212,-0.12724343224861834
0.2288514195620976,-0.12800814835790972
0.22685301334143732,-0.12873716628379878
0.21726598232553465,-0.13219386824397483
0.20949190524845593,-0.13505718351775414
0.20539336211285364,-0.13661689062529975
