"Plane Section: Position[X] (m)","Plane Section: Position[Y] (m)"
3.5,0.00250487821697566
3.2700000000000005,0.002522665773261451
3.04,0.002615375867725138
2.8100000000000005,0.002758520265649734
2.58,0.002946579004938313
2.3499999999999996,0.003247835716491108
2.1200000000000006,0.0037471142561793284
2.0415337747269033,0.003999999999999757
1.8900000000000003,0.004486232958982104
1.6600000000000006,0.005514620024964749
1.4300000000000004,0.0073673867453832005
1.2000000000000006,0.009748057729488533
1.1760000000000002,0.010782930280602267
1.1520000000000008,0.010908996636196343
1.1280000000000003,0.011666624237208885
1.1199085484543403,0.011999999999999822
1.1040000000000003,0.012651840550659571
1.0800000000000005,0.013584761577869907
1.056000000000001,0.014674486352870083
1.0320000000000005,0.015916098464624565
1.0080000000000007,0.016811411489772537
0.9840000000000007,0.017287035238267887
0.9600000000000005,0.017925662155812302
0.9360000000000004,0.018797178119034523
0.9120000000000006,0.01986304592609767
0.9095256729407459,0.019999999999999393
0.8880000000000005,0.02114766231323944
0.8640000000000005,0.022449694567354718
0.8400000000000005,0.023858531411897466
0.8160000000000005,0.025458872343414464
0.7920000000000009,0.02725273425451037
0.7836841909196741,0.02799999999999905
0.7680000000000009,0.029391097539161443
0.7440000000000009,0.03170179268464937
0.720000000000001,0.03430152001430077
0.7068631940098686,0.03599999999999835
0.6960000000000007,0.037428876181895276
0.672000000000001,0.04116901079479437
0.6579651454354822,0.043999999999997985
0.6480000000000008,0.046078463558436845
0.6240000000000001,0.051990635121335976
0.6239696259710372,0.051999999999997396
0.6011832339813923,0.059999999999996625
0.6000000000000003,0.06045676482941604
0.5834358277664939,0.0679999999999957
0.5760000000000005,0.0712595279929776
0.5653928795582533,0.07599999999999517
0.5520000000000003,0.08237674832668734
0.5483347476959605,0.08399999999999452
0.5385353920257878,0.09199999999999389
0.5279999999999997,0.0992486449278151
0.5266966814896268,0.09999999999999312
0.5153547943720291,0.1216666666666599
0.5161515216235157,0.14333333333332648
0.524927127839458,0.16499999999999343
0.45474758696928497,0.12166666666665893
0.44993866276750405,0.09999999999999223
0.4701743646314769,0.14333333333332593
0.45599999999999913,0.12353426779991092
0.4965772695555168,0.16499999999999304
0.4799999999999979,0.15282436048996564
0.5039999999999971,0.1712177534401528
-0.434894376991005,0.0679999999999932
-0.4319999999999997,0.06367408459834423
-0.4387179262920212,0.07599999999999243
-0.4430786771791171,0.0839999999999919
-0.4481402817309881,0.09199999999999127
-0.4499158445973081,0.09999999999999068
-0.4530982619713718,0.12166666666665743
-0.6580082287146767,0.043999999999996584
-0.6719999999999997,0.041172542976161616
-0.624712914669763,0.05199999999999577
-0.6479999999999997,0.04611252971295584
-0.601609972392283,0.059999999999995106
-0.6240000000000001,0.05221492641295068
-0.5838340439488683,0.06799999999999436
-0.6,0.06062055974467905
-0.5663426552125561,0.07599999999999377
-0.5759999999999998,0.07157057988611741
-0.5493391028938133,0.08399999999999291
-0.552,0.082848480206643
-0.4560000000000032,0.12748920849030496
-0.7072210476624183,0.035999999999997395
-0.72,0.0343122621418548
-0.696,0.0375063248741954
-0.538240464414683,0.09199999999999242
-0.5242878827900288,0.09999999999999178
-0.5280000000000002,0.09809412464679573
-0.46466943270041183,0.14333333333332451
-0.744,0.03169859769223451
-0.5126758653784239,0.12166666666665801
-0.48000000000000714,0.15893769573177174
-0.7837230074706117,0.027999999999998214
-0.792,0.027243936225915196
-0.768,0.029411878597271096
-0.5158293069428361,0.14333333333332487
-0.48962815802990545,0.1649999999999915
-0.816,0.02545727327335243
-0.5274941362555279,0.16499999999999207
-0.5040000000000091,0.1738315311593034
-0.8400000000000001,0.023940017769937587
-0.864,0.02257898723777363
-0.8879999999999999,0.02135820948372293
-0.9123973780249962,0.01999999999999909
-0.9360000000000002,0.01880650562919972
-0.9119999999999999,0.020021404726601764
-0.96,0.017821691809438663
-0.984,0.017286598121262403
-1.008,0.017427303243450706
-1.032,0.01700911475155
-1.0560000000000003,0.015534438471178512
-1.0800000000000003,0.013838702660401044
-1.1111225814478631,0.011999999999999789
-1.1280000000000001,0.01123106988126375
-1.1040000000000003,0.012343085566945146
-1.1520000000000001,0.010761100332409287
-1.1760000000000002,0.010705679581753783
-1.2000000000000002,0.009540636234969114
-1.4300000000000002,0.007271625928214031
-1.6600000000000001,0.005512539567671557
-2.0410214815268675,0.004000000000000154
-2.1200000000000006,0.0037448818760141426
-1.8900000000000001,0.004485519829479681
-2.35,0.0032374711627034553
-2.58,0.0029488897431830816
-2.81,0.0027443200834459357
-3.04,0.002604477985104488
-3.2699999999999996,0.0025250854947141215
-3.5,0.0025039220849479155
-0.3552144330632719,-0.05878122665032615
-0.3584527706738745,-0.056362657147325725
-0.3545482883723217,-0.05938906033265458
-0.36235666898514274,-0.05233680542010802
-0.3599184694220192,-0.054872227356241074
-0.3636731143773829,-0.05096378280340942
-0.35135847143723864,-0.06268973040375515
-0.34938923769746044,-0.0646440063850582
-0.3506443357329223,-0.06332193419280692
-0.3662604492408892,-0.0481089119374012
-0.3672372717604122,-0.04705544955485617
-0.34869237023241384,-0.06530688723205735
-0.3474509503575246,-0.06659826428399705
-0.3454886916866599,-0.06855253618969509
-0.34674040763112723,-0.06729680203970277
-0.36984819800269886,-0.043147673291184206
-0.3447884229932458,-0.06924900311868519
-0.3434800445391526,-0.07050683520074924
-0.34140349733074615,-0.07246117388666108
-0.34283639613145345,-0.0711289416579724
-0.33893205315653624,-0.07439379025003835
-0.33890421066720217,-0.07441575958451452
-0.370163546186435,-0.042711592529178825
-0.37257827568012847,-0.039239827405836286
-0.34088433216020597,-0.07294537059634601
-0.33697974540385195,-0.07579300847866423
-0.3363272330999547,-0.07637039067815599
-0.3342001921830404,-0.07832475886817257
-0.33502763348560577,-0.07752738027147739
-0.3740668332687661,-0.037639675648210774
-0.33215765036792533,-0.08027907768430781
-0.33307560383977747,-0.07940255420234457
-0.376198114533294,-0.03533146162190999
-0.3311235652965001,-0.08126250091980879
-0.3300912992158867,-0.08223341041253396
-0.3779706137987955,-0.03341225156976434
-0.3798097015984338,-0.03142310065959293
-0.32917151092938784,-0.08309536647316704
-0.32792476124004943,-0.08418780168117826
-0.32721938730361705,-0.08480970189091458
-0.3252685118243684,-0.08614247909434579
-0.3225978397344255,-0.08809716493485668
-0.32331469194561885,-0.08747147750816303
-0.38187431247452885,-0.02904474101055958
-0.38321921869253966,-0.02751485776930522
-0.3025688569119649,-0.10083958263863071
-0.30208714544116305,-0.10107028064023935
-0.30090728558886953,-0.10161440193765915
-0.2992056814557882,-0.10224116084145497
-0.32033673580895544,-0.09005161145956994
-0.32136254853825486,-0.0891519584553687
-0.3252670413654115,-0.08614356892135006
-0.38561026951891425,-0.023607209981594657
-0.29359827110037134,-0.10428868540574769
-0.29538596777980797,-0.10364862004325832
-0.2914878833985409,-0.1050468752546401
-0.2894781347597061,-0.10576761641594416
-0.28757687902428375,-0.10645443924674597
-0.28562699396727925,-0.10717419372763354
-0.28369187857334843,-0.1078975461198566
-0.28173033477361464,-0.1086222563363393
-0.2797762866419209,-0.10933060505622025
-0.302800205307521,-0.1007684555225584
-0.2972941033483432,-0.102955878141365
-0.3194104223407453,-0.09086189255302343
-0.3176577977877615,-0.09200630212996219
-0.3147016246795265,-0.09396115479231282
-0.31550560374390035,-0.09331275562729814
-0.38577724691783144,-0.023369313163005553
-0.3888059576293153,-0.019699092034254316
-0.27790155115373955,-0.11000321775912186
-0.30369180231749476,-0.10046064932480422
-0.3047976562881406,-0.0999766088977868
-0.3047514465354106,-0.10002925851105267
-0.3174580455988888,-0.09214304182383426
-0.3135533874659825,-0.09486852495157475
-0.3118369085458506,-0.09591595401518332
-0.38968073753037147,-0.018645720540376012
-0.2602490841422097,-0.11645050928166968
-0.2582995535937059,-0.11717124742939948
-0.25643525578021603,-0.11786341033169141
-0.2758630497902884,-0.11073320448277706
-0.27390737126377257,-0.11143708186070274
-0.27211399891287913,-0.1120881654042678
-0.2700033144509075,-0.11286485745410907
-0.2680029968546223,-0.11360456686859266
-0.2641529942659979,-0.11502233139487336
-0.2622146422504793,-0.11572847491132253
-0.304877260555692,-0.09992570951573855
-0.30574345599336344,-0.09926661835197781
-0.30534564943287335,-0.09982599760590331
-0.3116009627580423,-0.09606758445269685
-0.3917582407855916,-0.015791116311464907
-0.23679696755689528,-0.12494098823324759
-0.234932630035328,-0.12562392400733233
-0.23875000195101048,-0.12422985934796547
-0.2544020480595106,-0.11861698984074875
-0.25244733724441676,-0.11932352115788586
-0.2506521402953228,-0.11995876997313464
-0.2661046652558725,-0.11430746338673733
-0.309648474115759,-0.09715722588665972
-0.30858273907009365,-0.09787098080052263
-0.30769611146137865,-0.09846248464254953
-0.39306837316196497,-0.01297785019286988
-0.39353935999225365,-0.011883824827115037
-0.3955516863896636,-0.007976398420133694
-0.41085435574103957,0.015470047121820808
-0.4130966123911801,0.018370669820033686
-0.4506456988146512,0.11705581503821003
-0.45209970921284437,0.12004545040857627
-0.23094133430621364,-0.12708389114287955
-0.23289406006367783,-0.12637191582458393
-0.22915560394225165,-0.12773415570779376
-0.22703746560370652,-0.1285121826271315
-0.2250372140330052,-0.12923613434863596
-0.2485332476363083,-0.12072378190802635
-0.24652789968664585,-0.12144173207141709
-0.24364085144162895,-0.12246659814285732
-0.2426590399399019,-0.12281574458125302
-0.2407203222372764,-0.12351253121725173
-0.3974856074922235,-0.005585292094756478
-0.4019305953920608,-1.601698101995941E-4
-0.40529198771128905,0.004890462615300074
-0.4070567545521714,0.007655326802327214
-0.41674923569957734,0.023285992907525657
-0.42090295624019514,0.02890866868560283
-0.4463080505554107,0.10142827782886898
-0.46001276019357656,0.13268629099657636
-0.4677098817497183,0.1454259275635543
-0.21430676778801194,-0.1331627464894505
-0.21532123825109686,-0.13278438336027187
-0.22312740593657154,-0.12992349545121545
-0.2211713475089109,-0.13062633095398646
-0.21923561495516936,-0.13132292916361585
-0.21726535605640537,-0.1320488008170561
-0.24461848020695576,-0.12212218374007436
-0.42264665335512747,0.031101940176031316
-0.4429048222321673,0.08580128661276065
-0.21346578372399028,-0.13348251774320136
-0.4250827937836623,0.03891586497696854
-0.4296166969633693,0.05454351686051356
-0.43650434098178104,0.06932869251429001
-0.43694897747014527,0.07017280387094997
-0.20947136218314077,-0.1349430752874288
-0.20768619567191463,-0.13558381892395546
-0.20556250670238235,-0.13635769058089703
-0.2035667562167447,-0.13708599936134055
-0.211425226016113,-0.13423422113011674
-0.17629334702460028,-0.1470181085937538
-0.17821864883004213,-0.14630972033561443
-0.17235815997088103,-0.14843930678632247
-0.17431356503650933,-0.14773467944454047
-0.1704987494944107,-0.14910812585331917
-0.1811654308845027,-0.14524714156074464
-0.18017195946706535,-0.14559934904379582
-0.1840869868119215,-0.14420166002746024
-0.1820903857680418,-0.14491963686229142
-0.18996551593288444,-0.14212154881891062
-0.18799841530310238,-0.14279410118996444
-0.18621262661669846,-0.14342194430799576
-0.20165852266300888,-0.1377856657549168
-0.19970675195905946,-0.138500260298198
-0.1977789953980871,-0.13921033567187643
-0.19202188905006037,-0.14140400988474228
-0.19387120809303843,-0.14069825814949022
-0.1684461767904615,-0.14984534439396163
-0.16639059821728786,-0.15059086563418841
-0.16259076814393228,-0.15198886327830466
-0.16059867018503612,-0.15271117803565673
-0.19580949841481354,-0.13994669378947888
-0.15868704541633916,-0.15341755509732247
-0.15805994772927723,-0.15367214226525933
-0.16462902642356628,-0.15123875162073933
-0.15091879515826553,-0.15638243118148876
-0.14906375060862087,-0.15705391719525164
-0.15678109640627994,-0.15425781518952494
-0.15485909300948614,-0.15496680709081176
-0.14495485970630623,-0.15853616071816032
-0.1470091513525199,-0.15779488450137666
-0.14319502600438674,-0.15918953018099577
-0.14115770331169078,-0.1599492653082745
-0.15287392170916309,-0.15567704001578464
-0.13916775418294386,-0.16066944874154782
-0.12944332163619224,-0.16422652779286717
-0.12759260912918666,-0.1649005364927279
-0.12633876882479453,-0.16537919145836982
-0.13725626760997442,-0.1613842292734698
-0.13679912262354618,-0.16156501074931467
-0.13140158550552672,-0.16352974069238896
-0.11967182948435312,-0.16776483918377616
-0.11765910148853095,-0.16845246268389485
-0.1255489168769874,-0.1656807740494192
-0.1353220732823412,-0.16214702685747678
-0.13154806561062937,-0.1634797146633693
-0.133398117473983,-0.16284219849274933
-0.10793729953513073,-0.1719868452240493
-0.10608821358481055,-0.17265590364254452
-0.11574190348639826,-0.1691216687891822
-0.11378323201195452,-0.16981733803661248
-0.11186760683027025,-0.17052686629463537
-0.10988785454036099,-0.17126891663889116
-0.12350559133707037,-0.1664443425223539
-0.1213846029469963,-0.16718563933614206
-0.10403061879601452,-0.17340742472529708
-0.10200276194571445,-0.1742056258210187
-0.00304112490962423,-0.2099269649652843
-0.002510269693477747,-0.21012026150352592
-0.00631283888513158,-0.20873724466163016
-0.004435195999721204,-0.20941986810956653
-7.565010791161175E-4,-0.21075921317462723
6.001592002674259E-4,-0.2112546940148231
-0.012157130155326658,-0.20660837694565531
-0.014213419446148743,-0.2058586048884165
-0.010185043823453714,-0.20732739217380336
-0.008255045184919759,-0.20803074912576594
-0.12173592183788909,-0.1670714628553585
-0.10094500653608025,-0.17463857217487505
-0.1002800923290694,-0.17496237715469531
-0.0997059205749932,-0.17530111664356668
-0.018089541458345786,-0.204453533513846
-0.018017731019062275,-0.20447941148497512
-0.02041947048703493,-0.20361630037913686
-0.020091506533752697,-0.20373404946305307
-0.014325658730671572,-0.20581774344288156
-0.015979193419210107,-0.20521707151456772
0.013827979486453118,-0.20662841885931843
0.01585864121093284,-0.20589342795234988
0.009923192160926181,-0.20804037494033273
0.011186560221174934,-0.2075826164028307
0.011854204383449415,-0.20734175643759292
0.007981688620220546,-0.20874448510802956
0.00610306738575063,-0.20942657934656375
8.317354770465276E-4,-0.21133999034031986
0.017653155937027477,-0.2052459374996264
0.019692136604881744,-0.2045095094598927
0.11737022357804643,-0.16902559533746336
0.11541536011862466,-0.16973169066472887
0.11349516773177998,-0.1704286873285
0.11740382452717703,-0.16901351239482704
-0.09830384191313316,-0.1759037149678998
-0.09632812573328157,-0.1766468438480105
-0.021579342025984556,-0.20321187464063362
0.015885985109537412,-0.20588358701117135
0.004177240750062307,-0.21012654426165722
0.002422152730230557,-0.21076676804335698
0.020686786275209097,-0.20415164957904097
0.021765787067561576,-0.20376383316037822
0.023390422929503236,-0.20318788776150476
0.11150895557002705,-0.17115302607831315
0.1111642073075714,-0.17128041934112362
0.1186301533342845,-0.16858646930602122
-0.08807045372770607,-0.17954378128413281
-0.08652138203052692,-0.1799942736329563
-0.08465337123896696,-0.18060196460644956
-0.08262077084552111,-0.18143149882718732
-0.08213874914851532,-0.18170667114550876
-0.0943988473471184,-0.1773289187824313
-0.09244751860691522,-0.17804472540698785
-0.021936741579073573,-0.2030926469736474
-0.022587328759891893,-0.20287208130136286
0.025568653436545047,-0.20242405098329208
0.0255825200782049,-0.20241921906544183
0.02360725463517261,-0.2031121579097574
0.11738069468966707,-0.16905441686724193
0.11607530341875773,-0.16954240756818362
0.11110789427613404,-0.17131937113485915
-0.09053584651069582,-0.17875657999796007
-0.08852024935783247,-0.1794088411202793
-0.08065286248302247,-0.18238630988172516
-0.023421050154882644,-0.20260970618459503
0.02739714372379217,-0.20180155934696942
0.11544267500353847,-0.16980687435077196
0.11273143055221324,-0.17075726552532167
0.11152039657882165,-0.17118451723106953
0.11352231302352146,-0.17050340421266022
-0.07893398326401431,-0.18315419962181778
-0.07845750889783658,-0.18336507042662373
-0.07692555109176163,-0.1840143341888959
-0.07495526895360805,-0.18476430146611372
-0.024211156681244277,-0.2023840476793418
-0.023921199972436455,-0.20246769810006077
0.02950799081218509,-0.20109336253150098
0.0275829203318662,-0.20174260566627986
0.11700835767139335,-0.16930744278020798
0.1154485795434238,-0.1698231264812271
0.11233439157282465,-0.17091260870658204
0.11352882680222023,-0.17052133326102262
0.12002195665957929,-0.1683061958906634
0.119351693571219,-0.168533388595228
0.18799552355727422,-0.1437511782734326
0.18800795070279347,-0.1437467253279735
0.18798422388848274,-0.14375534548499297
0.21525291568395222,-0.13382334391416317
0.21712079384353303,-0.13315933199982632
0.213208096543193,-0.1345633467374239
0.21155521904206742,-0.13519179891407498
0.26010709481474825,-0.11756827184329008
0.26206444917151134,-0.1168690326622007
0.2571492829074657,-0.11862708084747524
0.25619205937393147,-0.11896585089497283
0.2582357825101718,-0.11824117127780587
0.2542328849738432,-0.11966008044246237
0.2524443050171134,-0.12031348403221317
0.23862138328747784,-0.12538427750872902
0.24057224491416576,-0.12466716721523508
0.23675852789390706,-0.12607130687241044
0.3606826373554866,-0.0552932835982457
0.360297726135185,-0.055722387029525394
0.35737870164680036,-0.05919760373407268
0.35249177004037435,-0.06310099890561045
0.35638883742753225,-0.06023716429944646
0.3524809094161488,-0.06310779356776998
0.3507177784050948,-0.06505308767350712
0.2739198525901668,-0.11248036789825655
0.2754912482716925,-0.11196328606176321
0.3636319740408647,-0.05138875626576436
-0.07302671809266591,-0.18545643604065182
-0.07107452939770122,-0.1861698842476341
-0.06918326807845626,-0.18692917459632358
-0.06727146218948668,-0.18787462284763234
-0.06687041902330089,-0.18806424668057892
-0.06537487184741728,-0.18874054899559703
-0.063527967894433,-0.18939660180721068
-0.025087099145711916,-0.20215831048218255
-0.04366010200405006,-0.1959283777778036
-0.041829377655011754,-0.19661922016902603
0.02965427038364995,-0.20104393883279628
0.07476281948300939,-0.18465561248335866
0.07443965445831277,-0.18477005632432514
0.07433671746627502,-0.18481041903439774
0.0920851083492982,-0.17844438169269924
0.09399890598629322,-0.1777383259541074
0.07638424408497387,-0.18412209965641557
0.07778748713583358,-0.18365034425213825
0.11742367084828008,-0.16917270790257413
0.1116603329893232,-0.17125042643995148
0.11456565934695567,-0.17028851593430752
0.11393611966850145,-0.1704793429268497
0.11355679928384789,-0.17059832696915794
0.1213590283499213,-0.1678310649255075
0.12341209869560074,-0.1671075369126791
0.15080272365195904,-0.15726260809949283
0.15148249703792088,-0.1570167388103989
0.18977745612365518,-0.14311279243177802
0.19174581126096263,-0.14244383268381478
0.19381250014894352,-0.14175478714256382
0.19568237119877946,-0.141105499388779
0.18587132493604078,-0.14453488026615247
0.18388448715909944,-0.14527970223813386
0.17810190599423023,-0.14741793125946595
0.18002969525939844,-0.14671636512967953
0.23276389482475074,-0.12752211137399821
0.23471927471160164,-0.12681743750313734
0.23097433257830743,-0.12816182976022872
0.22885255042784636,-0.1289298499518291
0.22685468207398607,-0.12966034830890147
0.21802581137624416,-0.13284097670931672
0.20949979843225675,-0.13599749806810035
0.211266448943827,-0.13530581846076759
0.20539558757706725,-0.13754160402039212
0.2073868754813179,-0.13680100591360347
0.201532760456627,-0.13894812510104093
0.2034862449568255,-0.13823823421550674
0.19960422564549676,-0.1396560854646332
0.2718007671166506,-0.11323396355341853
