"Plane Section: Position[X] (m)","Plane Section: Position[Y] (m)"
3.5,0.0015839044698276407
3.2700000000000005,0.0015950627058878505
3.04,0.0016579155627972925
2.81,0.0017557885747875185
2.58,0.0018939994375645644
2.3499999999999996,0.0021099500131028038
2.1200000000000006,0.0024102178685020525
1.8900000000000003,0.002794791223607364
1.6600000000000006,0.0033478235661986637
1.534504515580992,0.0039999999999999584
1.4300000000000002,0.004555466573369841
1.2000000000000006,0.00611408111598049
1.1760000000000002,0.006745825890064694
1.1520000000000006,0.00689234111096869
1.1280000000000001,0.007450630856389674
1.104,0.007901444822049321
1.0800000000000005,0.008277745694897368
1.0560000000000005,0.008677172187797483
1.0320000000000003,0.009007328167898052
1.0080000000000005,0.009345442212258977
0.9840000000000003,0.009763179175505385
0.9600000000000003,0.01027657172435565
0.9360000000000005,0.010816936799451659
0.9120000000000004,0.011438280446006577
0.8935957319386321,0.011999999999999858
0.8880000000000003,0.012175448232170222
0.8640000000000008,0.013000546930019539
0.8400000000000003,0.013887638418683094
0.8160000000000003,0.014820629436223708
0.7920000000000004,0.01588259802196463
0.7680000000000003,0.01708196906181373
0.7440000000000004,0.01840808841935182
0.7200000000000002,0.019959321823609176
0.7194400897659214,0.019999999999999483
0.6960000000000004,0.021605547758988618
0.6720000000000004,0.023690777805876046
0.6480000000000006,0.02605790489733406
0.6329274533684315,0.02799999999999861
0.6240000000000008,0.02921711265369121
0.6000000000000008,0.033143950612547254
0.5879470595093763,0.03599999999999815
0.5760000000000008,0.03898348766579562
0.5595459058440259,0.04399999999999739
0.5520000000000007,0.04641958535345861
0.5358157005927531,0.05199999999999686
0.5280000000000004,0.054857199095041505
0.5148169598831212,0.059999999999996
0.5040000000000002,0.06474219692607339
0.49648636748543273,0.06799999999999523
0.48404037385834786,0.07599999999999439
0.4800000000000004,0.0790730026173459
0.4736096949997326,0.08399999999999376
0.46794676839774385,0.09199999999999285
0.46856479078025753,0.09999999999999236
0.4656993321209295,0.1216666666666592
0.45599999999999896,0.12643765269679214
-0.5882596532802037,0.03599999999999684
-0.6,0.03318833063192769
-0.5598157844692153,0.043999999999995903
-0.5759999999999998,0.03902451980533538
-0.5366494974823615,0.05199999999999526
-0.5519999999999998,0.04660020939007787
-0.5147168988126697,0.05999999999999459
-0.5279999999999999,0.0550667466853985
-0.4946459270034771,0.06799999999999365
-0.5040000000000001,0.064258998999792
-0.4795104241799665,0.07599999999999313
-0.4800000000000001,0.07576409842306478
-0.6333875778337268,0.02799999999999763
-0.648,0.02609403828941429
-0.6240000000000001,0.029269565571532007
-0.4709288279293142,0.08399999999999216
-0.6719999999999999,0.02368633280015047
-0.46538458522944376,0.09199999999999138
-0.7195657574511167,0.01999999999999846
-0.72,0.019966831456608262
-0.696,0.021697547522799194
-0.46491024471303644,0.09999999999999086
-0.4512246517945899,0.1216666666666574
-0.43200000000000116,0.10986278235627207
-0.744,0.01842714609033482
-0.461507801894916,0.12166666666665747
-0.768,0.01710896773947606
-0.45600000000000285,0.12442702698386957
-0.792,0.015904384798561495
-0.8160000000000001,0.014828952144349601
-0.8400000000000003,0.01387955803636396
-0.8640000000000002,0.012971166016946672
-0.8929449331562268,0.01199999999999922
-0.9120000000000001,0.011395587426855166
-0.8880000000000003,0.012161589284642147
-0.9360000000000002,0.01078286971695699
-0.9600000000000002,0.010255527005774482
-0.9840000000000002,0.009707582149549174
-1.008,0.009270916203993583
-1.032,0.00889059426309264
-1.056,0.008561345165060805
-1.08,0.008247240026532522
-1.104,0.00790158017762739
-1.1280000000000001,0.0075554013514629054
-1.1520000000000001,0.007168800075924924
-1.1760000000000002,0.0070131354520728195
-1.2000000000000002,0.0061904089706567664
-1.532578337934865,0.004000000000000152
-1.6600000000000001,0.0033464130645681983
-1.4300000000000002,0.004537941821997392
-1.89,0.002791060820465308
-2.12,0.0024144246184186783
-2.3499999999999996,0.0021060611400361253
-2.58,0.0018967477973312133
-2.8100000000000005,0.0017536222742647713
-3.04,0.001651931776311168
-3.27,0.0015962567756605613
-3.5,0.0015849040678719267
-0.3562354134462295,-0.0208856340998498
-0.35850615840999456,-0.018879266044696082
-0.35460265375761596,-0.02263586453743295
-0.3624088465250529,-0.01400578277708743
-0.36033557781186987,-0.01697638548873492
-0.3630868400035161,-0.013068123039276788
-0.3525080539284992,-0.024794610159073305
-0.3654703026856403,-0.009160129482402522
-0.350882089986089,-0.02674892439830368
-0.34877396515676373,-0.028703591137943765
-0.35069953900276263,-0.026925776816297514
-0.3465756555287474,-0.030658323810327667
-0.3467958626205653,-0.03044747800172338
-0.3663108604391068,-0.008210106701621922
-0.36875533247957626,-0.005251476803650336
-0.3487477307768089,-0.028727614647107665
-0.34484407806705486,-0.032281695725491395
-0.3445012818233588,-0.032612965875044676
-0.34241627110280726,-0.03456761571632348
-0.3428922938086402,-0.03411631709684005
-0.3702137794457991,-0.00365244408714332
-0.3722964136813921,-0.0013426369296398075
-0.340940514175579,-0.035957265163881494
-0.3403447119452855,-0.036522255723366925
-0.3382350349464678,-0.03847692359778469
-0.3389887222651655,-0.037781419890006065
-0.3741166170965722,0.00101649967252305
-0.3370369209783711,-0.03959274931945414
-0.33611733626070656,-0.04043159733673399
-0.3338707743676307,-0.04238636528560272
-0.3350850903567103,-0.04136395359863298
-0.37529924631790496,0.0025658094390959086
-0.33313318286190696,-0.0430300084778112
-0.3314925168799179,-0.04434122951508965
-0.3775822898386074,0.0064737295810755185
-0.33118120717661526,-0.04460279031137059
-0.3292291370164389,-0.04604634647154765
-0.3289299618057778,-0.046296228481722594
-0.32654011645679526,-0.04825110118292287
-0.32727716647644367,-0.047626166186969694
-0.37801848019847784,0.007018461234940862
-0.3808614869203393,0.010382377995607603
-0.32129478903022024,-0.05216118700517887
-0.3214210342871874,-0.052063923914043304
-0.32532523083619025,-0.0492537228392288
-0.3240573003908789,-0.05020604185357955
-0.3233731948764169,-0.05074405936171783
-0.38192115648413305,0.011908125117256623
-0.38337316563126844,0.014290465289251384
-0.31946891011766004,-0.053433604436191974
-0.31852753320711186,-0.054116335625377494
-0.3155437181551208,-0.056071642568725634
-0.3155645772342352,-0.05605732311533603
-0.38459132636232757,0.018197606911752394
-0.302223768306233,-0.06341274818342373
-0.30277018003730477,-0.06304966460881727
-0.30499139210482323,-0.06209834856292462
-0.3049763178278967,-0.06211249465094081
-0.29940339976452124,-0.064633142822939
-0.30115677869540947,-0.06400702184204107
-0.31751682321159497,-0.054854255078090046
-0.3136123254263815,-0.05725241602899446
-0.31236300128329364,-0.058027093463949714
-0.38582132450101914,0.020228675923738275
-0.3869945741936725,0.022105614933240245
-0.29377549612837556,-0.0667219092940594
-0.2955600132808469,-0.0660661368165733
-0.29166991615534144,-0.0674949839578727
-0.28966600341891396,-0.06823194498053625
-0.2877695485554531,-0.06893195267104586
-0.2858193653563097,-0.06965088895926352
-0.28387990735037866,-0.07036233031777428
-0.281913596640491,-0.07107396954516079
-0.27995731057715273,-0.0717761852962366
-0.30501164769997174,-0.062085253527376136
-0.30580295055009554,-0.06152991177782863
-0.30553407942412475,-0.061938337027811895
-0.29747321707607244,-0.06536091208276451
-0.3116600966457244,-0.058479006257496594
-0.38972144002512793,0.02862102796428546
-0.404842270501399,0.06118117354892636
-0.40191389416578993,0.05336653057017102
-0.2603848437735168,-0.07877200998822512
-0.25842367697084956,-0.07946084646105335
-0.25655393339427507,-0.08013807630061336
-0.2780807215844546,-0.07244372157718945
-0.27201085887672793,-0.07461290289031437
-0.27017265758946923,-0.07527842993676455
-0.26816805893497064,-0.07600639985382926
-0.26236676181963714,-0.07809482421342329
-0.26430974811199903,-0.0774013840392644
-0.309707742054293,-0.059533508649161196
-0.30892409204820476,-0.059982733119659466
-0.30775541766789183,-0.060629326402749165
-0.39049259254946406,0.02992067436854885
-0.39432233235503666,0.037735976320310095
-0.39752292980783055,0.04368399640052399
-0.3985243961314051,0.04555155047240939
-0.40532133585407615,0.06296499412188213
-0.23503492029118211,-0.08785370121420011
-0.2361570590010535,-0.08748156609193393
-0.2545179702010847,-0.08088409755474618
-0.25256565866746583,-0.08159720844601304
-0.2507687040136852,-0.08222764681125952
-0.2760400060452766,-0.07316764413963014
-0.274082959633224,-0.0738677755923324
-0.2722872924799564,-0.07451256973335671
-0.2662647990092073,-0.076695782401278
-0.40694129034958226,0.06899521019789195
-0.23298206352965428,-0.08856252770223536
-0.23102740179393155,-0.08926919612527229
-0.22924304778999033,-0.08992323403324182
-0.22712516315752074,-0.09070195420509777
-0.2251248316059875,-0.09142568892124214
-0.23691640010354703,-0.08721775777502477
-0.24864433716791856,-0.0829776558165481
-0.24663902927476375,-0.08369572118831821
-0.23887099718138,-0.08651091210920452
-0.4084376743639523,0.07680880626904135
-0.415318866647828,0.09243884117864337
-0.4209197708648589,0.09930711215624394
-0.42806959179208043,0.10807316721365104
-0.43653140496705306,0.11759510833082984
-0.44287828723368283,0.12370899779915272
-0.45214562865617824,0.13234098813375342
-0.467459558890249,0.13935197296515472
-0.46776537313172273,0.13953536702996483
-0.20951716551953367,-0.09701799499400456
-0.2077310482932027,-0.09765613664998915
-0.20560575673306422,-0.09842561549096898
-0.20361366735387265,-0.0991639600708696
-0.21237832929567613,-0.09601551155918292
-0.2114771143074458,-0.0963258196503112
-0.21540621460028986,-0.09496669581963724
-0.21353493297288403,-0.09562143570192026
-0.22321445337050327,-0.09211149082737888
-0.2212596642710548,-0.09281781011587498
-0.21932866037303864,-0.09352737448533836
-0.21735918774377158,-0.09425539855985823
-0.24473117248578158,-0.08438046298192017
-0.24277606960926396,-0.08508592213212349
-0.24084058000604214,-0.08579156190505849
-0.4683735969355899,0.1393526412043413
-0.18999518920292452,-0.1041522262324873
-0.1880427547571994,-0.10486500019213714
-0.18627107072886173,-0.10553151700372104
-0.1853480207987725,-0.10587612455941844
-0.20170829969136989,-0.09987148106985742
-0.19975812177551522,-0.10059044071962736
-0.19782878711272397,-0.10129618732368986
-0.1938996987167214,-0.10272569317277457
-0.19204113865626943,-0.10340610047639233
-0.4672459061780451,0.10810180841585741
-0.4677867379448701,0.11031192065915686
-0.4722787265237002,0.12373049200910288
-0.1765311615897712,-0.1090925005969916
-0.17636030595371704,-0.10915103111690974
-0.1743688308902479,-0.10983555064808757
-0.17241343612196836,-0.1105402096529112
-0.17056552586771165,-0.11124055734637694
-0.1841593480198201,-0.10634938102830468
-0.18217439819802794,-0.10709930076965749
-0.19585295306365863,-0.10201516675917968
-0.46737989154804055,0.09247690219496138
-0.14113712588307287,-0.12184218272510022
-0.14159550061879583,-0.12168086586014032
-0.16952509779694203,-0.11164830138349455
-0.1391443529540294,-0.12255462768949192
-0.17830578325114904,-0.10849795122104866
-0.1802631919314278,-0.1077988128325098
-0.4678003072232083,0.09175144577580067
-0.14319111328120782,-0.12112813627241228
-0.16853193056006016,-0.1120298020674515
-0.16649257770683262,-0.11281980358312946
-0.1626922306671924,-0.11421637921339109
-0.16069882929077933,-0.1149351226938636
-0.13722366590390764,-0.12324418041045843
-0.13660281373026806,-0.1235021899950352
-0.4785811788853497,0.07686008710869757
-0.4834400400327941,0.0716051685843959
-0.1443308387533253,-0.1207454619490353
-0.14685365385780302,-0.11991880761414478
-0.1449723419609702,-0.12053342021986269
-0.15097007481983893,-0.11847232887568643
-0.14911670893902254,-0.11914841856645414
-0.15877691819882048,-0.11561329878108159
-0.15682108643343096,-0.11631675987190951
-0.15489757531165158,-0.11702161551505637
-0.1647379319511957,-0.11348667332458534
-0.1137866954433353,-0.13177620382022864
-0.11573914304328056,-0.13106346591944276
-0.11340538351272822,-0.13192294648325104
-0.11692561915468669,-0.13063877019131226
-0.11959148907201282,-0.12970789382915146
-0.11765232272057008,-0.13038323254043827
-0.13724129529884407,-0.12329250681437806
-0.13743010140237605,-0.12323466688746779
-0.1375177882378749,-0.12323085180285122
-0.48798929451918027,0.06905446314988099
-0.14705093897878732,-0.11985876766096276
-0.1529196644287976,-0.11775175653549022
-0.11379331232426498,-0.13179434227941178
-0.11444496823886366,-0.13155760727468807
-0.11477925539082551,-0.13144950268395456
-0.11470280214053928,-0.13148248754426484
-0.11445143416792128,-0.13158297757874765
-0.11966094572817643,-0.12968433759341255
-0.1373686259312436,-0.12337893052360022
-0.13757322741071698,-0.12327879337612913
-0.13759382913774904,-0.1232705506848612
-0.12769456309693977,-0.12704850989029123
-0.12766822609897707,-0.12705714429076626
-0.49125557351733157,0.06745873112142899
-0.11576609163720683,-0.13113733848511339
-0.12351342683385583,-0.12841512362192375
-0.12407943499831114,-0.12822680597019404
-0.1217046980354383,-0.12899944163755261
-0.11659477609413336,-0.13086353293086592
-0.11833605365683396,-0.13032198223233782
-0.11770271229385643,-0.13052136245815327
-0.12558741112930719,-0.127735605535981
-0.13728677626148933,-0.12341718105186965
-0.1353619301998114,-0.12420558139548354
-0.13442643886273745,-0.12459273245437508
-0.12953670534826106,-0.12643183810480768
-0.12172562960002344,-0.12899255884726563
-0.11930621007332295,-0.130108567561632
-0.1334652049277384,-0.12497540109320335
-0.13149302486396575,-0.12572971405467925
-0.09822700699000804,-0.1376422863261367
-0.09741814710532892,-0.13795280084853503
-0.10576771956731414,-0.13490689026358227
-0.10407525554840982,-0.13547914312474874
-0.10803246775369543,-0.13419708079506584
-0.10615258769551275,-0.13478172731607724
-0.10202141939252027,-0.13620610512491396
-0.10026020694466362,-0.13685714961637224
-0.10839860022535927,-0.13408764606460805
-0.117806128107414,-0.13080485003077935
-0.09625613767459351,-0.13839869255030024
-0.006212689316803945,-0.17095985718656054
-0.004511438084028614,-0.17157849476359577
-8.32379652386215E-4,-0.17291704197606733
-0.0010516871887144678,-0.17283710048259426
5.147219642329988E-5,-0.17323953124921979
-0.11156673659198924,-0.13314266026220303
-0.11003177731527568,-0.13361280278155882
-0.11662725475574684,-0.13129659138735014
-0.09045232366824892,-0.14047681021390476
-0.09135157511210401,-0.140165876539839
-0.08821319160758963,-0.14131075378708619
-0.08846359954380212,-0.1412027700964224
-0.09434013799451269,-0.13911717628156964
-0.09238114952560159,-0.13981198409020967
-0.07503588891947541,-0.1461178125821978
-0.07476912785368772,-0.14620309953958463
0.011780965279011426,-0.16950629260734001
0.01184783587865016,-0.16948224897510208
0.007906765489613566,-0.17090441388003588
0.008647534491238455,-0.17063619590962942
0.006027748146469378,-0.1715854206016579
-0.002586284765938249,-0.17227837768540255
-0.006389092907307886,-0.1708958120292003
7.558978171362883E-4,-0.17349858362714207
-0.01223339168014022,-0.16876691028800658
-0.014021453248645246,-0.1681194556334816
-0.010260735218390757,-0.16948436330458377
-0.008331033329604637,-0.17018854176815995
0.10557811536362155,-0.13545508357533617
0.10526882841191673,-0.13556944219846306
0.10763640697418886,-0.13470547125900437
0.10948539344213369,-0.13403615265389685
-0.11592895981333437,-0.13158379925661995
-0.11397936895569213,-0.13230436817389563
-0.11205701388783554,-0.13299544382451048
-0.08721348435827522,-0.14181594220870197
-0.07283207392405878,-0.14687192968279322
-0.07677959051010383,-0.14556328933308313
-0.0714075584114359,-0.14744142170712926
0.013755505002638538,-0.16879505430215133
0.015814076202581802,-0.16805177918265018
0.009849286436490922,-0.17020309486634122
0.004101720721023336,-0.17228487852687902
0.002889352254406713,-0.17272723671752077
0.0021378192609843435,-0.17300015030257948
-0.014291363622715804,-0.16802175043593567
0.01637710377967078,-0.16784980708086233
0.019305186748699226,-0.16680498744920028
0.017582919984770937,-0.1674187379502274
0.10462498849565768,-0.13582173964419825
0.10993614711262938,-0.13387454032425117
-0.08660797325004825,-0.14218091844195305
-0.08626189313677989,-0.14237382639453966
-0.07767439936692358,-0.1452957850483246
-0.07090370279433393,-0.14765066696861529
-0.07092639795812333,-0.14771287986113113
-0.07033097957471654,-0.14797465276000313
-0.06512538536739079,-0.1500055081901185
-0.06327752178017937,-0.15065893747162074
-0.015470723243946598,-0.16760309870066958
-0.016673558423788877,-0.16718280800505037
-0.016062851279531276,-0.16739587856288335
0.002346605890086557,-0.17292550076906543
0.01962600151239206,-0.16669360426479732
0.05674479000187954,-0.15321278790820908
0.058803351519567844,-0.15248314877129232
0.056470492226627145,-0.1533364224585819
0.05532835866165873,-0.15373203863914936
0.05537925862915684,-0.15370859063671033
0.1051561674808399,-0.13565658366318095
0.08692195147659215,-0.1423198093528339
0.08802336130163949,-0.1419173699736742
0.1114444096509338,-0.13334149451827076
0.11179891008762295,-0.13321658367963302
-0.08486042073220446,-0.143118844076119
-0.08280374291845369,-0.1438823408146972
-0.07987868083881455,-0.14470241195897077
-0.07888562771022868,-0.14497076493120808
-0.08072635852117578,-0.14453695638466038
-0.06905823215376605,-0.14853545259016177
-0.06707202350787864,-0.14927684516626652
-0.06121513972101951,-0.15141631713334142
-0.017424019510179363,-0.16693679347012283
0.020354712931890513,-0.16645159756064593
0.05920708919847162,-0.1523426477382488
0.06058097072399743,-0.1518757427619779
0.06112595884361613,-0.15168743112119584
0.05813944104067696,-0.1527719627219168
0.05675451447166828,-0.1532395665664626
0.10559958658378582,-0.13551420972614614
0.09825968412646952,-0.13816099000700685
0.09774636633464098,-0.13834014644769316
0.09708734653218937,-0.13858671563517821
0.0882101104598929,-0.14185202405358627
0.08641229752788575,-0.14256729618394956
0.11263237710225851,-0.1329416540618663
0.1088163613916719,-0.13436901816429928
0.10774093515086297,-0.13475955115936952
0.10763748409139834,-0.13479711863779126
-0.059625789051315284,-0.1520906342604269
-0.01799113438271847,-0.16677153956897764
0.020890886504989332,-0.16629849667954516
0.06263692495852233,-0.1511703573274819
0.05882716301771708,-0.15254871943842166
0.1038110317083819,-0.13624907601037983
0.10357768919680116,-0.1363290399665551
0.09973921171610449,-0.13764409932387311
0.10095636448884976,-0.13722331724607617
0.09591195258708413,-0.13905515769556345
0.09653787330507332,-0.13881814525810432
0.09635702875012214,-0.13885386089459645
0.08999126621414331,-0.14124718901410507
0.08802608036117965,-0.14207487773712843
0.07802526399692239,-0.145612984674966
0.07826666003133027,-0.14549634855722354
0.11267306114637057,-0.13296848649682658
0.1124242401833185,-0.13305504008323074
0.11224745673527475,-0.13311139172479583
0.10766674189140082,-0.13478900572403005
0.1095161249330342,-0.13412077917961596
0.18579952248334458,-0.10670352460137378
0.18645027461406782,-0.10647328989262436
0.18552823039271948,-0.10680812335463329
0.21519222280267708,-0.09602256519672271
0.21705772041013144,-0.09535200370137023
0.2131488506012247,-0.09676655141168482
0.2125803111505348,-0.09698436257938017
0.36207019796462314,-0.017504525264571063
0.3602436538504309,-0.019398787420587732
0.358311282853411,-0.0214080282232978
0.35404397584230374,-0.025311159504514742
0.35633449408034523,-0.023377432275304227
0.35229111029625365,-0.027263003533366352
0.3524255092921204,-0.027116731602286722
0.3641536200231059,-0.014317120367329055
0.3646200054300357,-0.013600138345786796
-0.05921418540045975,-0.15227264261502477
-0.018622507168135172,-0.1666036588284765
