"Plane Section: Position[X] (m)","Plane Section: Position[Y] (m)"
3.5,7.855334522707995E-4
3.2700000000000005,7.903668939873988E-4
3.0399999999999996,8.201310794465037E-4
2.8100000000000005,8.67010697688149E-4
2.58,9.393184636604447E-4
2.35,0.0010462218120271712
2.1200000000000006,0.0011965789101509605
1.8900000000000001,0.001422799314523596
1.6600000000000006,0.0017272001211854552
1.4300000000000002,0.002203034189116535
1.2000000000000004,0.0027113861268034576
1.1760000000000002,0.0029649801093925097
1.1520000000000001,0.003061692745139297
1.1279999999999997,0.0031634211088968148
1.104,0.003298648641856512
1.08,0.003473492706194786
1.056,0.0036795596116148493
1.032,0.003907614231632089
1.0224135771947767,0.003999999999999945
1.008,0.004138863817698356
0.984,0.0043766199809362515
0.9600000000000001,0.004637112046539123
0.9359999999999998,0.0049019515854886835
0.9120000000000001,0.005172226012823994
0.888,0.005454768467562791
0.8640000000000002,0.005780667574110835
0.8400000000000001,0.006135475549316026
0.8160000000000001,0.006517115398439638
0.7920000000000003,0.006955822599605067
0.7680000000000005,0.007429160044183083
0.7440000000000004,0.007974758729464774
0.7200000000000003,0.008624928407014969
0.6960000000000002,0.009237206575543364
0.6720000000000002,0.010042943303370959
0.6479999999999999,0.010924678175932505
0.626387278536638,0.011999999999999934
0.6240000000000001,0.012126354262713218
0.6000000000000001,0.013559981026069909
0.5760000000000002,0.015639700587307438
0.5520000000000003,0.018125114638368148
0.5418237133237345,0.01999999999999922
0.5280000000000002,0.022692312865976234
0.5082406687097271,0.027999999999998637
0.5040000000000004,0.029196722285408976
0.4800000000000004,0.03118751517544885
0.4560000000000003,0.02954841556676371
-0.4799999999999999,0.03145652735738678
-0.45599999999999985,0.030891910066606233
-0.5431878368944618,0.019999999999998
-0.552,0.01837852915738119
-0.5053009945670218,0.02799999999999696
-0.5279999999999998,0.02276860133342281
-0.504,0.028346039714442252
-0.5760000000000001,0.015621593324783682
-0.6000000000000002,0.013608527481789827
-0.6267799130163552,0.011999999999998436
-0.6480000000000004,0.010959480228318164
-0.6240000000000003,0.012143450113601443
-0.6720000000000004,0.010050876819745432
-0.6960000000000003,0.009280737040566148
-0.7200000000000002,0.00859326971038886
-0.7440000000000002,0.00797498653442749
-0.7680000000000001,0.007428678208811292
-0.792,0.0069442804071374485
-0.8160000000000002,0.006504013820632933
-0.8400000000000001,0.006126449858097534
-0.8640000000000001,0.0057705018007262205
-0.8880000000000001,0.0054527549519219915
-0.9120000000000001,0.0051613537820219685
-0.9360000000000002,0.004890688390011348
-0.96,0.004632895893801241
-0.984,0.004377891032491277
-1.0237097938891768,0.003999999999999721
-1.032,0.003922674375548388
-1.008,0.0041462671177725716
-1.0559999999999998,0.003701236310473843
-1.08,0.0035178643302291287
-1.104,0.0033477457107308913
-1.1280000000000001,0.003194706513343065
-1.1520000000000001,0.003073982835731317
-1.1760000000000002,0.002958235803365816
-1.2000000000000002,0.002695731325674947
-1.43,0.002206714092758361
-1.66,0.0017279296595741915
-1.8900000000000001,0.0014227081300839974
-2.12,0.0012148350634615603
-2.35,0.0010429712284023042
-2.58,9.378280231741176E-4
-2.81,8.73852184078422E-4
-3.04,8.173911476637718E-4
-3.27,7.879976014900252E-4
-3.5000000000000004,7.852661107582852E-4
-0.3507384444106104,0.023286495682685496
-0.350229964680896,0.022528714137415917
-0.3545591563443766,0.030344968836187182
-0.35270272549961534,0.026437108548812094
-0.3479417163123344,0.018620479628247942
-0.35463848639499307,0.030451666971614222
-0.357009622504742,0.034253343926591684
-0.3470398371302945,0.016666572308083306
-0.34598026955486194,0.014712528331958748
-0.3468382207332946,0.016330981304251473
-0.3585396146884697,0.03636333754829382
-0.34488765190038617,0.013380553429197936
-0.34446731252800855,0.01275809143936979
-0.3427314173669499,0.010803461344080244
-0.3429365445171898,0.011051563023150263
-0.3599441833164007,0.03816213854320636
-0.3409853236140395,0.008853564198396
-0.3409814206930143,0.008848819028133458
-0.36244179558460676,0.04106040151262855
-0.3633731309652311,0.042071361605457644
-0.3390725752907152,0.006894039050676797
-0.3390339258126399,0.006859689672313133
-0.33714051585928456,0.004939238955449584
-0.33507952558486703,0.002984327126158164
-0.3351309866823941,0.0030375580999001638
-0.3663441155115237,0.045597036763055286
-0.36667413989492537,0.04598047379343778
-0.3328964380134167,0.0010293094848727918
-0.3331793321784197,0.0013398947071938793
-0.33708251013601587,0.004886441513221311
-0.3702468473808743,0.04965832834766758
-0.37051163548837507,0.04989005091159945
-0.2992487127459878,-0.020807238069677502
-0.30093622183776897,-0.020196418838268462
-0.3312277229641134,-4.100287918748484E-4
-0.3306480915025516,-9.25764711123123E-4
-0.41517872671304956,0.038133714479180666
-0.4170905848528322,0.03625853703784019
-0.4150731332280878,0.03820991440684755
-0.4135686193488317,0.040161736298095364
-0.3741496517331057,0.053635981380299694
-0.3026209035735221,-0.019499505155973172
-0.2973482698437684,-0.021521509780290177
-0.29641780593384115,-0.021871141268796638
-0.32927593381299536,-0.0019523217489889589
-0.3281626135102947,-0.0028810444100650975
-0.325984747312973,-0.004836057526404487
-0.32732426732121617,-0.0036361523042772676
-0.42076347535861147,0.03430859430566983
-0.4190878872186099,0.03477695148833053
-0.4171335122187,0.03621849004090062
-0.41322235389091333,0.04188055603389067
-0.4131953357051404,0.0421145385363471
-0.37434797977914147,0.05379962703204752
-0.29367207103367776,-0.02289242099658049
-0.29545039157377284,-0.022229682629949676
-0.2915738916049938,-0.023683513898565274
-0.2895760213946426,-0.02443676710569541
-0.3027189573202695,-0.01949277549737328
-0.3209536645714542,-0.008746669031347427
-0.3214689649883938,-0.008338174304298474
-0.32537263792873494,-0.005362792040711974
-0.32359106343523975,-0.0067912576747051765
-0.32342086531610287,-0.006924168885633488
-0.4210414715596497,0.03424776048832809
-0.41320146595984,0.042222583803281526
-0.41302860397864194,0.046020645510090934
-0.3774759000160597,0.0577085892178477
-0.28815406103706837,-0.0249806804252638
-0.2876864857016101,-0.025155706588422692
-0.2857400563678977,-0.025884923483849145
-0.28380514114120514,-0.026608810863905846
-0.281845585904312,-0.027338962832678795
-0.2798977672917801,-0.028064384433789842
-0.30298329847412814,-0.01943772081734667
-0.319517146237677,-0.00984631205491256
-0.318358626333478,-0.010702043677408754
-0.31552379538343633,-0.012657626132709711
-0.3156132765527306,-0.012594669157763583
-0.423984586327116,0.032358260052206586
-0.4229956367687039,0.033048301263776954
-0.4125903512335395,0.04992651717823389
-0.38195389858930384,0.06316273498594979
-0.27803250944263147,-0.02876297541035324
-0.3034262773243951,-0.019325588617224696
-0.30504415867137125,-0.01868590262108032
-0.30501882552497334,-0.018701101114174185
-0.3175652846534324,-0.011305023864189244
-0.31366122822144005,-0.01383789205719958
-0.312452058924808,-0.014613413895094744
-0.4269031894682911,0.03154679840244885
-0.42494980617086064,0.03184400356921856
-0.4132127544344699,0.05295744534762372
-0.4133727072815584,0.053833446650655245
-0.38554325481582374,0.06552808348443716
-0.2760052278891716,-0.02952371593747245
-0.27326693679857167,-0.030554269503441363
-0.27406020099760303,-0.030256787095474327
-0.30506781492699236,-0.018676185161083082
-0.3058526008714176,-0.018309958927912557
-0.3057115153546359,-0.018525506853403925
-0.3117092063360706,-0.015111631124475
-0.4288567600045613,0.031033536845877036
-0.415654654765788,0.05774167569933772
-0.38976302197190277,0.0670624258984292
-0.2722738319026315,-0.03092706258306486
-0.2701724808676532,-0.031729323823118424
-0.26817699374187703,-0.0324822614014416
-0.2624239091709346,-0.03470280282274789
-0.26434526898516947,-0.033950098468544326
-0.2618009632442231,-0.03494955479316923
-0.30975700857709904,-0.016182428236933742
-0.309092660427823,-0.016569450951235465
-0.30780485012248116,-0.017298578951730714
-0.43038326023871354,0.03041067953908254
-0.41711337589998243,0.059453948727637596
-0.39757033558070176,0.0730504292071571
-0.41926838198254013,0.06165105889530777
-0.2604764219697312,-0.03547434916252846
-0.2585404512158731,-0.036232234921240156
-0.2566826213364247,-0.03694211117592318
-0.26628575082861433,-0.03320457348549577
-0.4347167600756743,0.030314801183591186
-0.4327637769390971,0.030150257550143937
-0.430810532533861,0.030287193917466603
-0.4359435028284677,0.030415498157833336
-0.43666973239984463,0.0304918213388011
-0.39800934842575253,0.07335138978709932
-0.4210161383504227,0.06347995256339847
-0.2546548969534908,-0.03771070631339151
-0.2527141156368189,-0.03845541071391097
-0.2509375800397281,-0.03914180842935223
-0.4386228278048663,0.03052681752226854
-0.4053796279248528,0.07675515403946398
-0.4236846791971888,0.06556113761467938
-0.24884015278596155,-0.039965643576217305
-0.247985095368104,-0.040307816474490596
-0.4405759695144271,0.030508382515118976
-0.4131893802209588,0.07992913664781613
-0.4249193679677218,0.06696688881360743
-0.42880978643471857,0.06947183060315319
-0.41703568245808664,0.08118038132686467
-0.42099978205659916,0.08235361039110235
-0.21504262776266292,-0.05201410139912054
-0.21366973173387616,-0.05244229393201343
-0.23715558886040183,-0.04432460621985536
-0.23529163036485612,-0.04500857836079393
-0.24685356616852427,-0.04073501192183658
-0.23910654881271926,-0.04360779216151141
-0.4425292864873268,0.030287709750194375
-0.44142508080893395,0.030420248604249318
-0.4288234358329857,0.06948656407467241
-0.4288113306843188,0.0834547916151642
-0.1842381443934763,-0.06301678433613424
-0.18224892439339685,-0.06375499388948797
-0.18814377796015516,-0.061593331974638135
-0.19010441999442715,-0.060903047658364844
-0.18636365875801486,-0.062236728225393674
-0.19019920911777222,-0.0608700002894624
-0.20965561667537758,-0.05384888688534298
-0.20786201480022193,-0.054466524995205885
-0.2057261322488544,-0.055206985827694094
-0.20372970401030532,-0.055933437293879666
-0.21161614611920454,-0.05315829406150292
-0.21556063722630392,-0.05184131472203392
-0.22159009651817654,-0.04994072327922794
-0.22151212426728306,-0.049961064760870866
-0.21953322517854645,-0.05053939031191426
-0.21753743215470997,-0.051195290732920395
-0.23325340638221206,-0.04575751486227804
-0.23130231014861685,-0.04647395549812889
-0.22951786645421574,-0.047127746542954554
-0.22739751642303388,-0.04789970909686227
-0.22539734762545893,-0.04862389205200965
-0.2449548702596639,-0.04144485954871992
-0.24300659612585807,-0.042169032982107786
-0.24107452520517966,-0.042884040453498105
-0.4444829682025527,0.02964615790773947
-0.43272668396856795,0.07295213193137727
-0.4336125416353103,0.0733822442348489
-0.43662430569156013,0.08291006215234761
-0.17837264403024905,-0.06513264523230589
-0.17644166724378785,-0.06582547886866788
-0.17251231799163547,-0.06726268422551579
-0.17446305738788237,-0.06654526582443458
-0.1706632270641732,-0.06795978708233434
-0.18033248390439355,-0.06444016292789045
-0.20183296773101495,-0.05666460446158104
-0.19989180165007422,-0.0574082545747039
-0.19796643642694378,-0.05812487712564836
-0.19402864796050387,-0.059530545559683914
-0.1921592469070998,-0.060181246763723294
-0.22348441796833685,-0.04930270701945104
-0.44552457964357056,0.028470675579482345
-0.44643791847826786,0.027540804000785162
-0.4366310342460964,0.07514592943469625
-0.44312095747492775,0.08120298735408882
-0.1414808877637903,-0.07841567463965361
-0.14121473962513836,-0.07850642163247276
-0.15686359282387513,-0.07288472833695406
-0.15720129286933243,-0.07277215102502674
-0.15492591911405615,-0.07355077614436534
-0.16862285217580558,-0.06873043762282824
-0.16668316917245077,-0.06945222537299992
-0.16077617293300717,-0.0715985358917435
-0.16137251542307046,-0.0713903589160565
-0.12557108694610142,-0.08414236480184233
-0.12762850697950048,-0.0834086821611596
-0.13922105717544098,-0.07921637987929567
-0.12763139933952203,-0.08340769472474661
-0.1294929017995972,-0.08276325056591256
-0.1959887332757558,-0.05883873578512021
-0.44839166019800714,0.02683001247654609
-0.14327658760317408,-0.07781390070054654
-0.1529531539390001,-0.07429501371090985
-0.15246072116827808,-0.07450223200199103
-0.15884029690512966,-0.07223845541879391
-0.16657356736888065,-0.06949320768242476
-0.16277911340798373,-0.07090592717282565
-0.12396276262242314,-0.08474650278249139
-0.13840583310348215,-0.07953792189303285
-0.1305355828256269,-0.08241018522926531
-0.44982822627780816,0.026521279473339057
-0.14435739874205927,-0.07745955547770296
-0.14679709050601922,-0.07670968894003795
-0.1450642574787333,-0.07723681357725462
-0.1513318466432724,-0.07505472075833175
-0.15106881359316346,-0.07519437125371448
-0.14926516017813501,-0.07600667745947266
-0.1648172644751973,-0.07015552682738155
-0.12353155889534612,-0.08491632466008311
-0.1382090344763601,-0.07970341312323345
-0.13147106745928638,-0.08212098249911107
-0.4503451515375193,0.026408136684714326
-0.14716416385513506,-0.0766205193907894
-0.12280324045495841,-0.08523211880322387
-0.1380045003510474,-0.07991856203060413
-0.13212208456869984,-0.08192485747787617
-0.1069118832840682,-0.0911253700781797
-0.1061971623402459,-0.09135537141146714
-0.4519123554295619,0.024569959888429888
-0.45230009151236006,0.024314669046472184
-0.12197358440801029,-0.08562857259495817
-0.13742585941258695,-0.08024978828360253
-0.1367201092600951,-0.08059805875172343
-0.132863386491041,-0.08179482165719397
-0.13426543192421064,-0.08149389807896526
-0.13355684322281428,-0.08167794447329416
-0.1041449636809107,-0.09212167763870611
-0.1080739064713327,-0.09076209456657622
-0.10391928605078085,-0.09221752433121072
-0.4542531751542443,0.02436323879835135
-0.1157138472106015,-0.08805357978679908
-0.11394639534605536,-0.08866538279640562
-0.11202904237253994,-0.08937016845985857
-0.11004439158401508,-0.09009878113656819
-0.12182304614099167,-0.08571103402982906
-0.12100047330923532,-0.08612421518218576
-0.11985357543133629,-0.08666372794401338
-0.11785345762544946,-0.08738594050735213
-0.13553566115620358,-0.0811330946447957
-0.09651407911601018,-0.09506057295925108
-0.09635036624661025,-0.09510839047473477
-0.10362665561456176,-0.09246482416070911
-0.4551815516187088,0.024572793039999354
-0.4562059021259781,0.024823373082474797
-0.11591209971807481,-0.08798896972343218
-0.0943971163991363,-0.09572479832654726
-0.09813839971234715,-0.09467852962253281
-0.09243480565772602,-0.0964105102409368
-0.10355091238301453,-0.0927032224655839
-0.0034366573817641364,-0.1286242966887609
-0.0026517604351479684,-0.12891002281204836
-0.006454713763343249,-0.1275273195834706
-0.004577063244405997,-0.12821020787330806
-8.976043602127971E-4,-0.1295491053899651
6.912339093126931E-4,-0.13012983253130028
-0.008396825550382295,-0.1268204562068536
-0.009079676327313964,-0.12657308917051183
-0.4581588003890858,0.025085852882202372
-0.09055327291029189,-0.09720493804400834
-0.09842776498001302,-0.09464389791797813
-0.10280737641566094,-0.09329071087603491
-0.09960154909545581,-0.09446068386915346
-0.0674128694189411,-0.105540612965866
-0.06704576263903583,-0.10565630633206458
-0.06605029913388828,-0.10603788567443659
-0.06510599261255609,-0.10640378175516343
-0.06328829863333639,-0.10713988610098323
0.007844890997352277,-0.12754108085299018
0.008204687565145953,-0.1274116943985016
0.004786798004652953,-0.1286441329459021
0.004037582148693784,-0.12891533245917755
0.005964501618272276,-0.12821836137171358
0.0031233482310682337,-0.12924794711315324
8.193790574671783E-4,-0.13008426285240002
-0.010328760427820705,-0.1261223814332337
-0.010992427597018841,-0.12588736186460184
-0.46011178188546176,0.02525228915493218
-0.09028584224163767,-0.09733358027057885
-0.08735437333828072,-0.09861418128261365
-0.08863210995467517,-0.09811602125303653
-0.08483834463686418,-0.09950964838042956
-0.08536170108445057,-0.09934141094542537
-0.08275431780883001,-0.10019820160157827
-0.08141290260819065,-0.10078253272491716
-0.10235824507889435,-0.09358057317350459
-0.10062921852241921,-0.09431980666375032
-0.0694545541879858,-0.10493599986470384
-0.06907683828884666,-0.10503785942041839
-0.06120874899671569,-0.10785022330767063
0.00978950751370529,-0.12684543732654274
0.010427446048958632,-0.1266171845126034
0.011725106567522663,-0.12615938166307933
0.012394156918286759,-0.12592178075385455
0.0022821269579694488,-0.12955508656969816
-0.012308208803978957,-0.12542353173380136
-0.012417809232471414,-0.12538566858519712
0.3510501989019372,0.021920970555728045
0.3523871832648901,0.023706109882678135
-0.46350825302500065,0.026533134861366034
-0.4640167635037502,0.026717577509985352
-0.4620642320043872,0.02603188610683269
-0.08671328811456042,-0.09892089651883151
-0.08076769709104026,-0.10110155589510786
-0.05986160488215411,-0.10843696560337115
-0.0721167142348293,-0.10417519497693278
-0.07103888438413124,-0.10447257914733563
0.01370602648071902,-0.12546569402163987
0.014803898190832117,-0.12507480722396175
-0.013200379949298513,-0.12512782169345632
0.017540579293280695,-0.1241090343600846
0.017916301584113663,-0.1239866431527488
0.35401387140867946,0.025824653643995263
0.3485376173339966,0.018016896542932682
0.3488538089919183,0.01855484560272119
0.34781972535719674,0.016064392949237657
0.34847580839320613,0.017794172190550975
0.3003449691036679,-0.02146811007125319
0.3008108872191688,-0.02129801246937337
0.29868287086967366,-0.022133840387648603
0.2989250168867443,-0.02204449441488651
0.35629856644638735,0.02962763635581776
0.3563517708385954,0.029728879039849845
-0.46596972610209975,0.026905820361096264
-0.07963207541889045,-0.10174858260935299
-0.05923899876344092,-0.10879200380855938
-0.07486330809512931,-0.1034889536343441
-0.07305380711625914,-0.1039310286385459
-0.07708410237297338,-0.10284916009120616
-0.07506201974032829,-0.10345716537819737
0.015770044097148325,-0.124737414498905
-0.013638036393518302,-0.12500972886080042
0.018545366137168222,-0.12382070630664233
0.05476834317756129,-0.11067215979881803
0.054745000851880304,-0.11068043348879693
0.054696914871089145,-0.11069808749682465
0.08993554744570925,-0.09790067380496087
0.08948793612103768,-0.09806932535952252
0.3471110624517634,0.014111881357436724
0.30095563722153473,-0.021246046966401477
0.2989287971630689,-0.022053839831144496
0.3590806329681886,0.033632765619543176
-0.47182498477692275,0.03165821967266799
-0.4696418172088129,0.030444701799036272
-0.4679216797504445,0.028258298669642846
-0.07910454805550744,-0.10202204219409373
-0.05749450059088957,-0.10949033829682239
-0.055441782317547664,-0.110236075021474
-0.05412908541879363,-0.11073981553282472
-0.04378562100687834,-0.11467286328680243
-0.042338520996186325,-0.11535893873073486
-0.013950209729071386,-0.12495824670991704
0.019070379321481572,-0.12372374234600639
0.05673244505646731,-0.10998572416527005
0.05880268533644323,-0.10928826551953262
0.0528208835039605,-0.11139285465344048
0.051250855955979904,-0.11204257949628249
0.09016900003021161,-0.09782210657144863
0.08899697351560923,-0.09829278339510558
0.08909590365951811,-0.0983052389885182
0.08805092508588278,-0.09880027361379677
0.08796274823825515,-0.09885697724307269
0.14084929509842545,-0.07965973621463393
0.14077423468356345,-0.07968671850952963
0.21057074806015197,-0.05456223020985418
0.21120732705572057,-0.05431646581392621
0.21268788379585546,-0.053793732975272325
0.3465187999576523,0.01331389123757858
0.34579905727068555,0.012159892634256517
0.3443353913234482,0.010208035343391118
0.34456326742408727,0.010536665361166672
0.3011885918996392,-0.021222361153110783
0.30094039477079976,-0.02131014960501636
0.3008692961672323,-0.021417545773489345
0.2971079569391517,-0.022978571056366817
0.29532929635481864,-0.0236473693171689
0.36020951604248796,0.03504884516726895
-0.4757311847471597,0.03171764198892896
