"Plane Section: Position[X] (m)","Plane Section: Position[Y] (m)"
3.5,0.002406027966891534
3.2700000000000005,0.0024230750248886573
3.0399999999999996,0.002513212985328279
2.8100000000000005,0.002652339308267457
2.58,0.002837515856592543
2.3499999999999996,0.0031260771699393717
2.12,0.0035851051996799548
1.9828512833424894,0.003999999999999787
1.8900000000000003,0.004284979391806885
1.6600000000000006,0.005281412626003552
1.4300000000000002,0.007090122837421728
1.2000000000000006,0.009441312798921922
1.1760000000000002,0.010458097311784337
1.152000000000001,0.010615806318862294
1.1280000000000003,0.011413096300465778
1.1127658779733638,0.011999999999999855
1.1040000000000003,0.012344534546753619
1.0800000000000005,0.013176674189933214
1.056000000000001,0.014039797771914254
1.0320000000000005,0.014821863332820524
1.0080000000000005,0.015476838467519231
0.9840000000000005,0.01612805139920926
0.9600000000000005,0.01696830921641412
0.9360000000000004,0.01788082389086103
0.9120000000000005,0.01885740018110852
0.8892644756345844,0.019999999999999386
0.8880000000000003,0.020067281353204923
0.8640000000000005,0.021371854514027653
0.8400000000000005,0.02273502323421164
0.8160000000000004,0.024263138609460735
0.7920000000000008,0.025981804277316747
0.7680000000000009,0.027960154031455388
0.7676091510705794,0.027999999999998682
0.7440000000000009,0.030236144720103487
0.7200000000000009,0.032734786616211736
0.6960000000000006,0.035545886032325266
0.6932547877264665,0.03599999999999816
0.6720000000000009,0.03927232943382994
0.6480000000000009,0.04363239303429115
0.6465020860185748,0.043999999999998124
0.6240000000000006,0.04917822026879065
0.6148246937958721,0.051999999999997215
0.6000000000000003,0.056998223200289175
0.5918399768915429,0.0599999999999966
0.5760000000000003,0.06715616194600874
0.5739969576339701,0.0679999999999956
0.5583075803612876,0.07599999999999515
0.5520000000000005,0.0789401317675334
0.5417099976384936,0.08399999999999455
0.5324178042091567,0.09199999999999395
0.5279999999999996,0.0951520931804163
0.520761545232939,0.09999999999999305
0.5098358186247445,0.1216666666666598
0.5131298703353352,0.14333333333332643
0.5188972664327997,0.16499999999999332
0.470260740408328,0.14333333333332593
0.45599999999999896,0.12605238564444726
0.49679707497676245,0.16499999999999304
0.4799999999999979,0.152900432550394
0.5039999999999971,0.17069748281363878
0.45274301471444434,0.1216666666666589
-0.43576257629842163,0.07599999999999241
-0.43199999999999994,0.06994349513931764
-0.4404409981238945,0.08399999999999185
-0.4443638814929529,0.09199999999999128
-0.44494205762423084,0.09999999999999058
-0.6466287151362116,0.043999999999996424
-0.6479999999999997,0.04365217995152007
-0.6152647684079259,0.051999999999995786
-0.6239999999999999,0.049333989671305166
-0.5920705914309303,0.05999999999999514
-0.6,0.05709383340627533
-0.5748067531880543,0.06799999999999429
-0.5759999999999998,0.0674817229467102
-0.45060954410985943,0.1216666666666574
-0.6937317777620033,0.035999999999997326
-0.696,0.035631051646795905
-0.6719999999999999,0.03925707440918244
-0.5595000931823013,0.07599999999999368
-0.5420364550743112,0.0839999999999928
-0.552,0.0793888117882405
-0.4560000000000035,0.1307971813365712
-0.72,0.03275229337364853
-0.531566866050125,0.09199999999999235
-0.5187184952868041,0.0999999999999916
-0.5280000000000004,0.09430115819475338
-0.4642301486943066,0.14333333333332451
-0.7439999999999999,0.030245220757189308
-0.5073330025729609,0.12166666666665793
-0.4800000000000071,0.15878320374560162
-0.768066457275304,0.02799999999999799
-0.7919999999999999,0.025999163002355774
-0.768,0.028006033167788675
-0.5131102737035974,0.14333333333332482
-0.49201868815276295,0.16499999999999151
-0.8159999999999998,0.02428147815392171
-0.5198042192580419,0.16499999999999193
-0.5040000000000089,0.17129585192444988
-0.8400000000000001,0.022799023385878917
-0.864,0.021447649839984227
-0.891947278789166,0.019999999999998963
-0.9119999999999999,0.018951693763328295
-0.8879999999999999,0.020215713938971716
-0.9360000000000002,0.017896148754754038
-0.9600000000000002,0.01694437408305237
-0.9840000000000002,0.016230181292378833
-1.008,0.015997338067699596
-1.032,0.015522344232938922
-1.0560000000000003,0.014485679495520796
-1.0800000000000005,0.013270610897257996
-1.1075295241415166,0.011999999999999773
-1.1280000000000001,0.011230045333691537
-1.1040000000000005,0.01213954498794649
-1.1520000000000001,0.010663892879270588
-1.1760000000000002,0.010491061517931728
-1.2000000000000002,0.009284339504868528
-1.4300000000000002,0.0069939567622724075
-1.6600000000000001,0.005281957507110354
-1.9825246102150584,0.004000000000000142
-2.12,0.00358339743546995
-1.8900000000000001,0.0042843665784961325
-2.3500000000000005,0.0031163901862938737
-2.58,0.002839648083240024
-2.81,0.0026396563431033923
-3.04,0.0025031496293455645
-3.27,0.0024256957986836915
-3.5,0.0024055354238679393
-0.3557346178963686,-0.05505742683885263
-0.35845685009458117,-0.052824303670461335
-0.3545526110516826,-0.056161670903438335
-0.3623606828825714,-0.048812957082075614
-0.3600993549003422,-0.051148545194325545
-0.36387202460322177,-0.04724002043051319
-0.3517896938523394,-0.05896605543250628
-0.34975683684535364,-0.06092040613364554
-0.35064869925759073,-0.06004194588997492
-0.36626443785924084,-0.044672521036507776
-0.3675237672760035,-0.04333156855795975
-0.3486966633025612,-0.061849266707033126
-0.3476656599013265,-0.06287479198832291
-0.345673970181261,-0.06482911787504456
-0.34674470129611007,-0.06377926866827789
-0.3700710968070773,-0.03942378239312699
-0.3447927303158373,-0.06569438299054972
-0.3436747323625764,-0.06678344831152586
-0.34165482090815125,-0.06873779120946859
-0.3428407511014764,-0.06759583691965029
-0.3701674403812044,-0.039283758077892375
-0.3726601010965047,-0.035515971107976
-0.3408887598559989,-0.06947733115308861
-0.3395702525443995,-0.07069217308068426
-0.3389367191145386,-0.07127671123962594
-0.33712329760613663,-0.07264677338787304
-0.33445859120331634,-0.07460150494922269
-0.33503217563595267,-0.07410901780041054
-0.3740705078665909,-0.034002769801921885
-0.3322603921667901,-0.07655595531367088
-0.3330800573129637,-0.0757796896980308
-0.3369844864827215,-0.07275774407368105
-0.3762724557237458,-0.03160754297738306
-0.3311280423242565,-0.0776217937910037
-0.3301781712328407,-0.07851033576993069
-0.3779742068151192,-0.029769382722981998
-0.37988968630119824,-0.027699111907697554
-0.32917601576901157,-0.07944470888177665
-0.32804769364903064,-0.08046474531388258
-0.3255717297132966,-0.08241936310683645
-0.32722395362281254,-0.08120857839257192
-0.32279165448078884,-0.08437416420911789
-0.32331934637278403,-0.08393508775621301
-0.38187779681168965,-0.025355243706798224
-0.3832082950841277,-0.02379086083845311
-0.3009216090589911,-0.09790584787089084
-0.2992140937706614,-0.09852566627395645
-0.32042952369997796,-0.08632871338679578
-0.3213671735735679,-0.08551538324626314
-0.3252716970033307,-0.08264981554266017
-0.3854917012425898,-0.019883233758863292
-0.29361850758028957,-0.10060826412442861
-0.2954009744069776,-0.09995329459031616
-0.2915110681075083,-0.10137476023347669
-0.2895009175880047,-0.10209443399422333
-0.28759650266322845,-0.10277259667988888
-0.2856381083062684,-0.1034690156793159
-0.28369388514137517,-0.10416739064190596
-0.2817316460245707,-0.10489019358922365
-0.2797842978427232,-0.10561691601412024
-0.30260303809675326,-0.09713749876478958
-0.29730502094841416,-0.09924834308267112
-0.3194150645513503,-0.08720148514518763
-0.31782512522083917,-0.08828340859629903
-0.31483223765073537,-0.09023833797561406
-0.31551032501226034,-0.08970852617108337
-0.3857804992878189,-0.019468702895889402
-0.3886293604634635,-0.015975091760683364
-0.2779151895515824,-0.10630496092161322
-0.3035039882152625,-0.09682279001456678
-0.3048042824171313,-0.09625417890814081
-0.3047539352732238,-0.09630710561211697
-0.3174627461886122,-0.08854028986736981
-0.3135580975652515,-0.09119816062902567
-0.3119648142338723,-0.09219319172880666
-0.389683863012761,-0.01467917785956449
-0.2602541214068441,-0.11272866474394003
-0.2583018388976276,-0.11344185560014483
-0.2564346862684351,-0.1141261890215221
-0.27587956542572145,-0.10704283866392722
-0.2739233027050696,-0.10774511445504067
-0.2721259742131564,-0.10838534908720796
-0.27001022560206894,-0.10914815319723925
-0.2680052484793563,-0.10987508411694799
-0.2641549295819581,-0.11129198051617552
-0.26221958356080893,-0.11200636750363074
-0.30488676042592056,-0.09620612413682858
-0.3057482110094211,-0.0955362348118441
-0.305358261181657,-0.09610342467405542
-0.3116057135595066,-0.09242806321202592
-0.3915967643249486,-0.012067052387413305
-0.2368050718509095,-0.12122755760720035
-0.234939664192767,-0.12190755855258832
-0.23875850951192146,-0.12051753456185996
-0.25439975220663996,-0.1148750337116752
-0.252452415158244,-0.11560178666822503
-0.2506652602493292,-0.11625909041524754
-0.26610535618801634,-0.11057370015553111
-0.30965323290641183,-0.0934976272513394
-0.308629551164725,-0.09414832748197494
-0.3077008520894019,-0.09473281995340843
-0.3929554831551857,-0.009253732769041434
-0.3934739208435163,-0.008159670095828412
-0.39548368620774377,-0.0042522080461589885
-0.4104694278484665,0.019194329175209718
-0.413098925501316,0.022551852881474904
-0.4497968543325672,0.12078055303936248
-0.4520996844543697,0.12499239597261869
-0.23289882929839148,-0.12264933896257016
-0.23094621848557778,-0.12336162950099575
-0.2291608747785231,-0.1240129544528847
-0.22704173584318194,-0.12478823711595546
-0.22504480585150008,-0.1255212979877547
-0.2485475368441067,-0.11702730921941565
-0.2465405785575618,-0.117740843975336
-0.239994629463988,-0.12007666649377365
-0.397488591591691,-0.001783988801973767
-0.40183549357475135,0.003564122055476724
-0.40529454577594326,0.009077913625995974
-0.4067031013744301,0.011379557525315265
-0.41653761774291753,0.02701048832058158
-0.420904612583876,0.03385687861434242
-0.4439228797680564,0.10515200954207773
-0.4601264927294222,0.1364117822796175
-0.46771038470426496,0.14872047691883888
-0.21531616071508658,-0.12903480313786328
-0.21345733904431136,-0.12972370260051905
-0.2231375428143153,-0.12621563894763804
-0.2211817377946173,-0.12691916990720117
-0.2192459637556388,-0.1276156548188316
-0.21727000222505516,-0.12832588758081412
-0.24463311069314408,-0.11842664842288339
-0.24267653021836433,-0.11912805282638983
-0.2407345347121691,-0.11981585114746009
-0.4215731407207891,0.0348260250047366
-0.4360975427490511,0.07389728698255693
-0.4365047418204029,0.0751223347511775
-0.44079099341706796,0.08952511889480247
-0.21155936851329402,-0.1304456698826769
-0.4231553923696438,0.04263948015863574
-0.4282525397310195,0.05826755540735444
-0.2094799993341602,-0.1312311040088201
-0.2076969353886862,-0.13187761409726018
-0.20557220209232452,-0.13264862188840454
-0.2035735540492007,-0.13336898457238505
-0.21142542849136514,-0.1304991189793805
-0.17266611935541326,-0.14462821011054178
-0.17236984042959752,-0.1447356831346417
-0.17051150571429108,-0.14540745276270053
-0.18409601727288363,-0.1404907672161798
-0.18209991179572987,-0.14121010356965555
-0.18802772810749574,-0.13913882837062932
-0.18998344558640043,-0.13843505734507688
-0.1862299263641597,-0.13973372886748334
-0.2016640576682648,-0.1340651876787507
-0.19971272990461492,-0.13478099676523853
-0.1977838227903263,-0.13548791657754322
-0.193860416150692,-0.13693300245106355
-0.19201179796279444,-0.13764067457432871
-0.16845934946965652,-0.1461458139422445
-0.1664003746817218,-0.14688202183473534
-0.16259668839357766,-0.14826944382530163
-0.16060741493500974,-0.14899950451002508
-0.17823028523376788,-0.14260597549604007
-0.1763010843632594,-0.14330367089848392
-0.17432363493002423,-0.14402663866177262
-0.1801870039900227,-0.14190495030636732
-0.195809904999581,-0.13621215044799637
-0.15869013727365341,-0.14969037898610957
-0.1567346038929074,-0.15039465487012155
-0.1557957363017165,-0.15078004600749934
-0.16463570019064255,-0.14752139891148258
-0.15092827151196156,-0.1526727567914207
-0.14907317066398126,-0.15334408866656873
-0.1548572105400634,-0.15122598195361786
-0.14496504731362614,-0.15482843788409056
-0.14702013543142634,-0.15408934546247885
-0.14319946324349514,-0.15546603733238143
-0.14116028300865235,-0.1562206776081357
-0.15288352796237725,-0.15196772147223186
-0.13917491425052536,-0.15695342221800632
-0.12945544859204836,-0.16052412156710283
-0.1275972626034345,-0.1611776355344073
-0.1255482971294422,-0.16194341038841054
-0.13725504063122695,-0.15764520177665473
-0.13530628528328378,-0.15836806528352773
-0.13477492302465097,-0.15858583901491485
-0.1295151512814744,-0.1605038305932091
-0.1125084818347322,-0.16656487348076135
-0.11186752934459103,-0.16679099691923957
-0.11121133429290633,-0.1670378822314249
-0.12507716884772763,-0.16212215422930334
-0.117674663730016,-0.1647594807538248
-0.11948223394171369,-0.16416236406249438
-0.1334072688144129,-0.15913162921508345
-0.13142273744567692,-0.15985208310402538
-0.10794281743383541,-0.16826631889810792
-0.10609697022758749,-0.16894425929434315
-0.11575332644486172,-0.16541733707955028
-0.11379046380723262,-0.16610151370071982
-0.10988932153704156,-0.16753728172852703
-0.12351027715149288,-0.1627215275432132
-0.11969581552334849,-0.16409495576763888
-0.10403758020575687,-0.16969085718785828
-0.10198874404326547,-0.1704315230496895
-0.10024281514761074,-0.17112448318637158
-0.09917836933319352,-0.1715662293303069
-0.002915212828694798,-0.20625837140444542
-0.0025170933682702496,-0.20640334229604138
-0.006319689709863584,-0.2050203939407592
-0.004442038367422112,-0.20570299982837828
-7.6333242250766E-4,-0.2070423412413055
5.516611098844721E-4,-0.2075225774083014
-0.012163887386401645,-0.20289126467767965
-0.013071505962761337,-0.20256033029167353
-0.010191833351050998,-0.2036103685751223
-0.00826186699447789,-0.20431381478663263
-0.12175309868710602,-0.16338290337291828
-0.09825249843403402,-0.17202723535558914
-0.09797431558246199,-0.17221602652867685
-0.017331326844943765,-0.20101519636772172
-0.015986188823783373,-0.20150061227174534
0.013821413784526235,-0.20291222590811553
0.015480434718737973,-0.20231174215646813
0.009916488986281039,-0.20432380445556828
0.010972931903166637,-0.2039410438060167
0.011847616707084237,-0.20362550348829678
0.007974941173778423,-0.2050277938150745
0.006096286005602993,-0.20570979420919905
8.249069702417753E-4,-0.2076232025280611
-0.014220211092439324,-0.20214158699209017
0.017646708208395402,-0.2015300695124605
0.01968576102078952,-0.200793840278695
0.11666274942670671,-0.16556577394941954
0.11540953133288284,-0.16601752653319585
0.11348900947757938,-0.16671361625854642
-0.0963368714934557,-0.17293514778917182
-0.01990297027883997,-0.2000897727073673
-0.01802502878591195,-0.20076378113049814
-0.021141398384389058,-0.19965667694954403
-0.0200996176448833,-0.2000206490209255
0.015879536148587774,-0.2021677154433666
0.0041704465926233805,-0.2064097310125387
0.0024371030289907962,-0.20704200597348194
0.002396079276380044,-0.20705690940074709
0.020321291769183944,-0.20056544647192878
0.021759947194267822,-0.2000496389874379
0.022786012167480066,-0.1996885363726856
0.11736782093569664,-0.1653208623494088
0.11150223838194742,-0.1674364166051116
0.11058578207277918,-0.1677734618180433
0.11798634084402498,-0.1651034220438288
-0.08655051160121147,-0.17633848833749405
-0.08721049318460114,-0.1761410867247012
-0.08466286949845989,-0.17689234743760462
-0.08259461584070905,-0.17762410406317872
-0.08061014083618989,-0.17853347186092577
-0.09441851686975306,-0.17364718040197363
-0.09246190380819197,-0.17434849544171188
-0.021942033123173037,-0.19939247424611117
0.002415352104432827,-0.2070499750677225
0.023603715769230097,-0.19940429845910976
0.024636939283260224,-0.19904385619044976
0.11737221713422395,-0.16533296349575421
0.11574361564817359,-0.1659459156475342
0.11043352841929066,-0.16784726636500846
-0.09054586300977986,-0.1750483688485809
-0.08854689328137601,-0.1757462320920311
-0.0805017543364822,-0.17858744851373476
-0.07548115839970632,-0.18073432698293973
-0.07687246957318235,-0.180133072339531
-0.021948899055922243,-0.19939034142179154
-0.022883922297388136,-0.19909063826861706
0.025570417876096194,-0.1987307908598086
0.026305650502783426,-0.1984792423068032
0.11543419823750548,-0.16608542561026168
0.11179335585225503,-0.1673809966873839
0.11151793022375184,-0.16747961057665048
0.1135161943119737,-0.16678844628663175
-0.07888038964765941,-0.1792715398975576
-0.0749316275478465,-0.18096377261357113
-0.06531176134092638,-0.18483175828669268
-0.064370290261736,-0.1852600930529877
-0.023620957575154648,-0.19888431625102396
0.027590699195585294,-0.19806590363710683
0.028040965397050734,-0.1979112363634467
0.11551090796352714,-0.16613447670247322
0.11545730387774229,-0.16614902709051077
0.11352330159793744,-0.16680801007725576
0.18586093613235855,-0.1408081843614219
0.1863927297872067,-0.14061802600113982
0.18500004649549617,-0.14112397079710245
0.2094701301838907,-0.13221773519501243
0.21124955525350722,-0.1315612167977227
0.2132088532480063,-0.1308673283519718
0.21446820474261138,-0.13041854954271087
0.2659399400014041,-0.11166450431979753
0.26401189389762486,-0.11239901844851613
0.2632251484952023,-0.11270574857393098
0.2601103364496573,-0.11387909576997937
0.26205963898477813,-0.11315769343556935
0.2582389023210853,-0.11455165951418587
0.2483218290254761,-0.11810314327928148
0.250322727746977,-0.11737298492616569
0.247721674801323,-0.11833797083252363
0.23861818653178307,-0.12167737939463713
0.24057809312153913,-0.12098516619176733
0.2367499082136707,-0.12234948192733838
0.36111567820669194,-0.05158327237933276
0.36029349124856713,-0.052474622588766714
0.3575957088433504,-0.055487401355041335
0.35291878264956006,-0.059390832951255496
0.35638467758977566,-0.05672657080999042
0.35097832217495595,-0.06134278865362436
0.35247662673974056,-0.05971301472131459
0.3642026289290429,-0.04768512041191778
0.36420798629264234,-0.04767888562198884
-0.07302044426580606,-0.1817035354341832
-0.07107297466920183,-0.18242992489938087
-0.06916199488008293,-0.18313513711201052
-0.06719030502740675,-0.18391635102520415
-0.06351783762090901,-0.18563310141941966
-0.024384925828239833,-0.19869939309908652
-0.023948792811732084,-0.19880771645719497
-0.04368522494214762,-0.1922615895202333
-0.04184754889352544,-0.1929333668579264
0.029517702288117304,-0.1974219828326497
0.07419106976261369,-0.18114546824101008
0.07247955953508774,-0.18176363924415312
0.07232197219454835,-0.18182448851312463
0.09370470549831829,-0.17415002227064855
0.09207452299155584,-0.17471713647086795
0.07638397388855056,-0.18042324700694562
0.07687990517812206,-0.18026226632194134
0.11743293200984044,-0.1655000896139957
0.11153716555591488,-0.16753255849698293
0.10991026818564943,-0.16811720939713132
0.11027332556953831,-0.16803722628770487
0.12136016411921174,-0.1641360848418859
0.12341283369832423,-0.1634114547989832
0.1184725417630832,-0.16515217046903738
0.1193522795882534,-0.1648368938736129
0.14874074754130678,-0.15428514737284793
0.14668457699957327,-0.15502123074990332
0.18979227063415632,-0.13945547199356392
0.19176620262611793,-0.13880186565601516
0.18799354157537823,-0.14004762270305884
0.19381697284312202,-0.13806900490333676
0.19567145721365978,-0.13737736470607723
0.18386916905708445,-0.14153943892485116
0.17809566091896734,-0.14370264461266785
0.18001723650952028,-0.14298397442030492
0.2327595096605003,-0.12381194249936031
0.2347102718593655,-0.1230945580919182
0.2309740636557516,-0.12446299088216532
0.22885039228379558,-0.12522581058625112
0.22684954663675538,-0.1259481137683977
0.21525817242945405,-0.13013971266114546
0.21712529841044953,-0.12947363101193382
0.20834927511707413,-0.13264148179107654
0.2053801462401505,-0.13380100539035214
0.20736021711450514,-0.13302952998040027
0.20152810144791877,-0.13523720648595247
0.20347913819244123,-0.13452057780350768
0.19959741116158553,-0.13593923397729124
0.26980736516239007,-0.11029464387707663
