"Plane Section: Position[X] (m)","Plane Section: Position[Y] (m)"
3.5,0.0013550193251283735
3.27,0.0013646152113683198
3.04,0.0014183026493699105
2.8100000000000005,0.001501731117750819
2.58,0.001621985721996942
2.35,0.001808862953453978
2.1200000000000006,0.002074402676645588
1.8900000000000001,0.0024273783878572255
1.6600000000000004,0.002883180837427522
1.4300000000000002,0.0037983493302420324
1.3954844683880263,0.003999999999999981
1.2000000000000006,0.005106741736530549
1.1760000000000002,0.005652951230292318
1.1520000000000004,0.0057837837248497104
1.1280000000000001,0.006232310355966058
1.104,0.006623867680119227
1.0800000000000005,0.006956641751091008
1.0560000000000005,0.007299803789731938
1.0320000000000003,0.007593038597124305
1.0080000000000005,0.007878792283951828
0.9840000000000002,0.00822453067258411
0.9600000000000003,0.008658315641662043
0.9360000000000003,0.009111450408163201
0.9120000000000003,0.009616652340118562
0.8880000000000003,0.010168486651272329
0.8640000000000007,0.010797746885757246
0.8400000000000003,0.0115185264292087
0.825701780459754,0.011999999999999914
0.8160000000000003,0.012331879482853768
0.7920000000000004,0.013238080116308646
0.7680000000000003,0.014227173751208418
0.7440000000000004,0.015328268413175871
0.7200000000000003,0.016595682651420467
0.6960000000000003,0.017872838884055817
0.6720000000000002,0.01955558832175212
0.6668339106758966,0.019999999999999178
0.6480000000000004,0.02155251866904831
0.6240000000000006,0.02401016168040388
0.6000000000000008,0.027112307403618845
0.5955320638740352,0.027999999999998804
0.5760000000000007,0.03173911616257326
0.5585617844990012,0.035999999999998325
0.5520000000000009,0.03771794098402647
0.5317808740078359,0.043999999999997375
0.5280000000000007,0.04537002438947904
0.5085324449489148,0.05199999999999641
0.5040000000000004,0.05341480124063783
0.4852430551976481,0.05999999999999578
0.4800000000000003,0.062159896884324856
0.4668299331733013,0.06799999999999531
0.45600000000000074,0.07550672277645767
0.45600521661363935,0.09999999999999229
0.45600000000000007,0.09999055812480427
0.45600000000000007,0.10002179946082439
-0.5959595290115994,0.027999999999997492
-0.6000000000000001,0.027182025517935214
-0.5590428339514346,0.03599999999999657
-0.5759999999999998,0.03178342914580662
-0.5321887648696332,0.043999999999995834
-0.5519999999999998,0.037920690109049415
-0.5080728595349313,0.05199999999999512
-0.5279999999999998,0.04541447923654646
-0.4827052940803569,0.05999999999999427
-0.504,0.053323918805649746
-0.46352958639969755,0.06799999999999352
-0.48,0.060921404791899905
-0.624,0.024060667619179014
-0.45599999999999996,0.07454907055200023
-0.6671190544975159,0.01999999999999815
-0.6719999999999999,0.019572517319982052
-0.648,0.02161998418484083
-0.4442675814814217,0.09199999999999128
-0.4483890401001267,0.083999999999992
-0.6960000000000001,0.017957423320739463
-0.4389305415420115,0.09999999999999046
-0.7200000000000002,0.016588024509695248
-0.4320000000000003,0.10284795543574496
-0.7440000000000002,0.015333843550783745
-0.7680000000000001,0.014235930779131881
-0.7920000000000001,0.013243980542998603
-0.8250119406501463,0.01199999999999906
-0.8400000000000003,0.011489187465834431
-0.8160000000000003,0.012312680789096645
-0.8640000000000003,0.010771460431113225
-0.8880000000000003,0.01016005929500561
-0.9120000000000001,0.009589528936784952
-0.9360000000000002,0.009090573444765219
-0.9600000000000002,0.008645291814636021
-0.984,0.008187700061296486
-1.008,0.007824781954770552
-1.032,0.007509195791543989
-1.056,0.007226226438782685
-1.08,0.006960580932300141
-1.104,0.006655148193756436
-1.1280000000000001,0.0063164161613813285
-1.1520000000000001,0.005974238513103764
-1.1760000000000002,0.00583403034837953
-1.3958368581848684,0.004000000000000186
-1.43,0.003791868746606898
-1.2000000000000002,0.005156858395432906
-1.66,0.00287994008348058
-1.89,0.002421894741041191
-2.12,0.0020829237642933096
-2.35,0.0018058957400442438
-2.58,0.0016239379341652185
-2.81,0.0015023485537760837
-3.04,0.0014130230491308255
-3.2700000000000005,0.0013646508048731115
-3.5,0.0013558170669888086
-0.35852021684481983,-0.005654617334173331
-0.35823915185155775,-0.005968187344941353
-0.3549445976843938,-0.009876956834689114
-0.3546175657322006,-0.010364246981851042
-0.36154956816561523,-0.00205940573018162
-0.3518695782245926,-0.013785558512701038
-0.3503622161765494,-0.015739836306894385
-0.35071505901963634,-0.015262783684167561
-0.36242301580925285,-0.00113841039813052
-0.3650273499000084,0.0018495038182556596
-0.34876365548761823,-0.01751558911872756
-0.3485887050357149,-0.017694317544747422
-0.34677314919450586,-0.019648830921479954
-0.34681211801117456,-0.019593165776149658
-0.3663259004588854,0.003265701445557931
-0.3686647581443788,0.005758535384778241
-0.3448604590704353,-0.021511840394038542
-0.344765006647849,-0.021603491510970133
-0.34249332319240555,-0.023558353550444465
-0.34290858340085745,-0.023146985997655606
-0.37022844877731054,0.008109808524271228
-0.371175705259383,0.009666705887367368
-0.34095688659156875,-0.025016120220133685
-0.340430136377437,-0.025513056215628972
-0.33827143634768614,-0.027467831890869508
-0.3390051208024493,-0.026795013640300035
-0.3732409274543136,0.013574535678985896
-0.3370533673259788,-0.02859001471924964
-0.3361309974354632,-0.02942259360735937
-0.33386974828835464,-0.0313774476708825
-0.3351015722930228,-0.03033065074974104
-0.37412955269352677,0.014843511593039229
-0.33314973206750653,-0.032012165003954436
-0.3315405854715402,-0.03333235364742703
-0.3757221588219848,0.01748268346694074
-0.3311978342191794,-0.033618295935759664
-0.32924582032234984,-0.0350726098594498
-0.3289826008688722,-0.0352874345347544
-0.32650186457704866,-0.037242456373671316
-0.3272938678332252,-0.036607258590788984
-0.3772828817060314,0.021390127620607643
-0.32116697313135045,-0.04115278549189583
-0.3214378103285493,-0.04094951196340539
-0.32534192460777156,-0.0381540262432048
-0.32391747251351416,-0.039197557446781446
-0.3233899128012526,-0.03961107475452701
-0.3780297106956986,0.022814678395071075
-0.37951635138016027,0.02529808602016464
-0.3021683031457024,-0.05227752105166832
-0.3023616568777192,-0.05217991417459748
-0.3022623879869809,-0.052188870078255685
-0.30225501115629877,-0.05218890943723817
-0.30270445121227674,-0.05198695431734547
-0.300609043312146,-0.053157818702694815
-0.29938281030245784,-0.05355036830949904
-0.3194857258658478,-0.04231151020252958
-0.3183525713596697,-0.04310806238382414
-0.315394630779259,-0.045063448996464466
-0.315581479399126,-0.04493406558670623
-0.38193021767690555,0.030329303803726414
-0.30290080219498494,-0.05194691234922817
-0.30132583520036116,-0.05286097434307355
-0.304960405166484,-0.05108706439835836
-0.3049220243318938,-0.051117187280749335
-0.29826131895563157,-0.05403534024646751
-0.3011482858942984,-0.0529615968511371
-0.31753366694353813,-0.04370692090800857
-0.3136292956588363,-0.04616618690012558
-0.3122585335389097,-0.04701897179156567
-0.38363612202225794,0.03311373744442091
-0.2937858506402998,-0.05569526538276667
-0.2955710289286468,-0.05504162220479794
-0.2916828647607369,-0.056475346060386275
-0.28968045581233276,-0.05721641969650018
-0.28778632102072704,-0.05792278545734626
-0.28583956061614546,-0.05865110278010405
-0.28390438199328716,-0.05937427339617389
-0.28194381851193917,-0.0601016660476926
-0.2799938091135995,-0.060821086911698664
-0.30500555201975926,-0.051062527465410464
-0.30582009392685605,-0.050484033207813306
-0.3055138524027462,-0.05093037854935578
-0.29748239181505176,-0.0543334907273354
-0.31167711559792527,-0.047403121658404476
-0.38727767517217526,0.04092902332049207
-0.395386102110709,0.06437272822792253
-0.3929275347443435,0.05655834662309521
-0.39752590547743877,0.06868208333103726
-0.39926743860401054,0.07218819739373633
-0.2781260241196996,-0.06151275612924978
-0.3097248251876758,-0.04849569519379177
-0.30889983012599953,-0.04897466474625263
-0.3077725505966282,-0.049608963722899115
-0.3897301098314184,0.04682612624793836
-0.39059325662022853,0.04874406002463569
-0.40441162269930864,0.08000463187695227
-0.25108139666753887,-0.07124828076939677
-0.250828497213092,-0.071336416075939
-0.2604494735584596,-0.06789403132980709
-0.2584907930714389,-0.06858968511724858
-0.25661875184890454,-0.06926061765529784
-0.276093968094996,-0.06226041592170767
-0.27414650374705035,-0.06298681265803135
-0.27236017620261976,-0.06365720720042176
-0.2702505284257708,-0.06443673737608879
-0.26824446864169693,-0.06516070270578031
-0.2643715019709567,-0.06651551700050794
-0.2624251059374041,-0.0671996126281981
-0.40532887077243335,0.08115856169910701
-0.23695341194422292,-0.07626409012069592
-0.2350829692267283,-0.07693029036322198
-0.24668511709688412,-0.07276692812614576
-0.24870178466856266,-0.07207999790546706
-0.2389085924580186,-0.07555884305903178
-0.2545783998478591,-0.06999460907988463
-0.25262280281346905,-0.07069871447678175
-0.2663340100928762,-0.06583035459367675
-0.41060509114879384,0.08782186843037788
-0.2055660055115101,-0.08750269385148117
-0.2036349320051224,-0.08816714861086569
-0.21542575808833334,-0.08396515715145247
-0.21356409691916386,-0.08464626884174582
-0.2248439111594347,-0.08060991578749742
-0.22324076190015552,-0.0811284954486037
-0.22128213008180478,-0.08182428263475629
-0.21935014043001846,-0.08253114463030271
-0.21737881421242217,-0.08325408723005986
-0.23303712013795863,-0.0776583282378951
-0.23108246260216098,-0.07836500875948962
-0.2292972477295805,-0.07901668678324607
-0.22717909148668275,-0.07979466192766199
-0.22517273717048453,-0.08050188905781044
-0.24477425064950353,-0.07344342160682447
-0.2428183390575282,-0.0741466648150278
-0.24088147798937115,-0.07484854550431683
-0.42093888427442505,0.10077017097172163
-0.42369418805968817,0.10345687826651451
-0.4365527464809504,0.11534682769821644
-0.44359865783124874,0.1190970977558207
-0.45217085663748197,0.12436623095563756
-0.18415762227948274,-0.09528954585704405
-0.18216445736901782,-0.09601694604443878
-0.19000970119162905,-0.09313690419133808
-0.18806003700366317,-0.09385727126196575
-0.18628499619900438,-0.09451458545355282
-0.20172102257797947,-0.0888512558717079
-0.19976661884366131,-0.08955863205212015
-0.19783972226482022,-0.09027106116539926
-0.1939151631073727,-0.09171298181569298
-0.1920537818322199,-0.09238565607601103
-0.20957383505283222,-0.08611822606822063
-0.20778900145794268,-0.08675988733156655
-0.20564436831758545,-0.08747635227866345
-0.21152435528604321,-0.08540020538034952
-0.44973254731870593,0.08003927507301051
-0.4522067116437055,0.07745999194981648
-0.44894501636873074,0.08785117536878698
-0.4623251814415845,0.11911141226141475
-0.16846050042249727,-0.10094645724731703
-0.16645879064612715,-0.10167208742031617
-0.17205638079731753,-0.0997282158372175
-0.17057867568656956,-0.10022150165204533
-0.18026005491547692,-0.09673510685530654
-0.18024432025467332,-0.0967409596471648
-0.1958682281723126,-0.09100193640078555
-0.45823456078881925,0.07223327170747032
-0.4521916722944367,0.09713477061051329
-0.45646771914977763,0.1034819302678305
-0.16851450445964497,-0.100926934785674
-0.16630561362095814,-0.10173263782062268
-0.17641444984650345,-0.09824433615653687
-0.17832736456204853,-0.09750199846743642
-0.17245772641277618,-0.09960651102860917
-0.17443561996622858,-0.09896351941979095
-0.4600245274144451,0.07050877980564747
-0.156827433714682,-0.10527905305758276
-0.15709967185822155,-0.10518496372767627
-0.1549019820955959,-0.10597858959669854
-0.16471978952445937,-0.1023818359803543
-0.16436893364848662,-0.10253287434753261
-0.16270089774989815,-0.10318502708322028
-0.16071564150897663,-0.10392609680012077
-0.13724728564263408,-0.11225383692598018
-0.13845588309537255,-0.1118307820894843
-0.1391731669829399,-0.11157852051044241
-0.14106615375062584,-0.11094090482403852
-0.1352889564373271,-0.11295045356128308
-0.13336762770016697,-0.11365282912285177
-0.46617554853422316,0.06442683949533874
-0.14117953864804791,-0.11090334776074293
-0.14311287244769366,-0.11028785357383922
-0.15397048974855598,-0.10632660243611124
-0.150990166043898,-0.1074722916910282
-0.1491403807129012,-0.10815819551755855
-0.15879508249133112,-0.10460798096156793
-0.11199682446939886,-0.12144237359439544
-0.11188941950049922,-0.12148093869578916
-0.11183353036317951,-0.12150194918507246
-0.1322807665775521,-0.11408368773665244
-0.46784288542055524,0.06284820444105658
-0.1450411540936163,-0.10966693651945687
-0.14709279209725704,-0.10891838283786942
-0.14325458705945285,-0.1102470254067862
-0.15293611994191536,-0.10674175487719126
-0.11565008363566792,-0.12015116183336484
-0.11381260132009521,-0.12079212820135553
-0.11110634064442626,-0.12180888346740518
-0.13275110519573977,-0.11395629369470832
-0.13274083110695897,-0.11396227233608427
-0.1324614748405895,-0.11408020262554974
-0.4756574495696254,0.06015082901159907
-0.11577547500970056,-0.12010796779962744
-0.11204656926815562,-0.12152829788301364
-0.11192019044993332,-0.12156528052855839
-0.1176221766165175,-0.11949411484447024
-0.11969894225355437,-0.11883010138480736
-0.11770352771227517,-0.11946849911673357
-0.13213437404966624,-0.11429320650394797
-0.13146858795409466,-0.1146076133308587
-0.13014998923997173,-0.11515768032425912
-0.12954795664438204,-0.11540755825681051
-0.12770991424910644,-0.11611629567955016
-0.483472614416513,0.056667608660946854
-0.11329062834153814,-0.12116808586810388
-0.12428159890241014,-0.11729868117712727
-0.12357762618836259,-0.11753599164710321
-0.11973070349430609,-0.11882045342262736
-0.12564695562090178,-0.11684370774397099
-0.09823198812628749,-0.12660083958876564
-0.09625988134950064,-0.12735385057030887
-0.10323284805433355,-0.12483752756069291
-0.10205334956813993,-0.12523852927136206
-0.10028112508038492,-0.12585938946257533
-0.483577867160446,0.056627639499731604
-0.11424578527169768,-0.12096010863965737
-0.11390213814468364,-0.12103754473950319
-0.12179897696897651,-0.11813850801025938
-0.09516969995263594,-0.12777925535478382
-0.1058382583057115,-0.12402747828777788
-0.10412051295248577,-0.12454809458680907
-0.10763320400934656,-0.1235833650359043
-0.10622587533759886,-0.12392750292231128
-0.005762137492468481,-0.16013381396724685
-0.004532528400735861,-0.1605812802373895
-2.7180284637682564E-4,-0.16213140440874402
-5.685579651962746E-4,-0.16202313741802943
-0.4912872391055928,0.05389103356220225
-0.11395092729774348,-0.12117127368397432
-0.11375822114430528,-0.12134873745398314
-0.08848188323189321,-0.13019778520008116
-0.08652066827202204,-0.1308864921077863
-0.08561053328450118,-0.13126678478142817
-0.09435194106655947,-0.1280944229782895
-0.09240378682363716,-0.1288189287425536
-0.1081478597465016,-0.12345825335616015
0.00600703752492876,-0.16058819126777654
0.00784101637942085,-0.15992397045208517
-0.0026073604406649064,-0.16128120858539072
-0.006410206816405367,-0.1598986273378337
-8.533821138399395E-4,-0.1619198532384617
7.349948752148666E-4,-0.16250139910756853
-0.012255093179055526,-0.15777131640634182
-0.012657512534652604,-0.15762635503451833
-0.010281872750337345,-0.15848722419645497
-0.008351964396668144,-0.15919083735690073
0.10555870639329698,-0.1244614147882741
0.10500372193074232,-0.12466427045572105
0.10607360818402779,-0.12427578960604657
-0.11212040952729357,-0.12211407230292382
-0.11014686458399169,-0.12287312685779352
-0.08952103753583446,-0.12984009152216783
-0.09048468949487136,-0.12951042388628292
-0.08474252362974781,-0.1317239646043379
-0.0749126823600265,-0.13531024590663113
-0.0748364289755176,-0.13533246889796607
-0.07215985321196035,-0.13617407892011404
-0.07089525902135077,-0.13657241945355192
-0.06897636345721728,-0.13725593124192922
-0.06814050456178836,-0.13764048254921676
0.013735797752781604,-0.15780056461899372
0.014765335592070238,-0.15743026299998736
0.009829135761961861,-0.15920739601877862
0.010981732001842433,-0.15879177996443433
0.011761363751132965,-0.15851209846208852
0.007886236662543119,-0.1599076831583421
0.004080902977409576,-0.1612873540828923
0.0028219172059788756,-0.16174642952729273
0.0021090441460859003,-0.1620052771675786
-0.014315365615755086,-0.15703246130406742
0.01830001825352084,-0.15616529427942166
0.017565210133287396,-0.15642974956956407
0.052815160197323734,-0.14362994793663572
0.05444274505420248,-0.14304169616435808
0.05168231706653485,-0.14404402085712673
0.10351410145224722,-0.12521371524031955
0.10762013518081659,-0.12372044213602043
0.10893087334202849,-0.1232567944429404
-0.08473777157430924,-0.13172751345544456
-0.08396780753198833,-0.13221735683386487
-0.0728796171752908,-0.13594714703323868
-0.07686926860909593,-0.13475398446135173
-0.06707231354301618,-0.13817069576740335
-0.06817719676167651,-0.13766643549453494
-0.06513308206348527,-0.13897147846196853
-0.06330346019484281,-0.13967490939030702
-0.01443506108991642,-0.15699017566538376
0.01579567072338801,-0.15706087439647104
0.002325726831287709,-0.16192779346051236
0.019607294159597638,-0.1557018702531901
0.05673103066560542,-0.14223468066709835
0.056994569343525064,-0.14214285383747605
0.05474499259209455,-0.14293327006402848
0.05387112592274362,-0.1432769911817859
0.05281797099887095,-0.14363768895612633
0.10301270287979494,-0.1254057106315748
0.08615520472637683,-0.13158418407921324
0.08652706419624778,-0.13146106880642405
0.10947509055485018,-0.12306756224317439
-0.08281947711538123,-0.1328703117410599
-0.0810185089486267,-0.13360948923505372
-0.07750210491582815,-0.13457627879018744
-0.0670565328840894,-0.1381792616926241
-0.06123041654758096,-0.14040306564783564
-0.015492473099513881,-0.15662289541941457
-0.016291462430142692,-0.15635914803763087
-0.016094024977261385,-0.1564262448110868
0.020060300318733314,-0.1555538647456028
0.0587968133639845,-0.14152493048660852
0.05544405605403993,-0.14274745871600933
0.054759968536920306,-0.14297451419985452
0.1031576442283667,-0.1253808190887267
0.10353235537673809,-0.12526398701613284
0.10488512917694208,-0.12479516702466378
0.08409087984357592,-0.13232668221580976
0.08801714566160213,-0.13096004400585773
0.08375832734203444,-0.13246641048863095
0.08395546721580907,-0.1323893273578578
0.07687351640455892,-0.13496631848782795
0.07625242191102508,-0.13518517801663096
0.11045956529198273,-0.12272945639447766
0.3597225401997544,-0.006516995381598417
0.360229788564699,-0.005922238351517141
-0.07899879091691583,-0.13422581566558803
-0.08061319847098249,-0.13375736114343237
-0.08081236767556892,-0.13371755733766294
-0.05917378153025363,-0.14110676122752033
-0.01685102381194558,-0.15619662902234743
0.020633572144744,-0.15538731302356912
0.07588266535938333,-0.13532610127291367
0.05907847651197767,-0.14142778314934765
0.06057524374803928,-0.140919761981246
0.06220503032462141,-0.1403549254637339
0.05643715338280263,-0.14244926935150132
0.10559458032366649,-0.12456021251179308
0.09812483475999881,-0.1272498624757595
0.09773965614919551,-0.12738145421662622
0.0958072180572246,-0.12805475323725587
0.09484535377672892,-0.12841232420711624
0.0951423747609137,-0.12833280806087177
0.09369439368314456,-0.12892098601864874
0.09388177892433046,-0.12884188196757979
0.0887744399834702,-0.13070744489476094
0.08390287138216587,-0.13242891349022906
0.08391520049327833,-0.13242935262275693
0.08363760635543058,-0.13257265391704612
0.07824200799424753,-0.1344882515904709
0.11115041628099842,-0.12252021111214334
0.10667396370484857,-0.12420804165195534
0.1779910755735848,-0.09853894065641658
0.17991176266676037,-0.09781781427851897
0.20979651671508692,-0.08699778012066975
0.20939521513694337,-0.08713570402166007
0.2052718136311685,-0.0886269849281304
0.20726419430999066,-0.08788938774644804
0.3572709934990948,-0.01042137256690676
0.3535366684485771,-0.014324769199810121
0.3563190685843305,-0.011768463478589213
0.35188723208302175,-0.016276633945573035
0.3524098609730562,-0.015636177017950656
0.36288073717748004,-0.0026131583579044855
-0.0574296845058013,-0.14180621255424392
-0.05632043317114912,-0.14230411805481238
-0.017253246370694815,-0.15611232749356027
