"Plane Section: Position[X] (m)","Plane Section: Position[Y] (m)"
3.5,0.0020377088256114013
3.2699999999999996,0.0020518266434478146
3.04,0.0021310153810815157
2.8100000000000005,0.0022538096592538467
2.58,0.002422461373767901
2.3499999999999996,0.002680582299667695
2.1200000000000006,0.003041015103584164
1.8900000000000001,0.0035581557151423207
1.769573348379222,0.0039999999999998604
1.6600000000000006,0.004406918559029336
1.4300000000000002,0.005995333065903812
1.2000000000000006,0.008026686047376351
1.1760000000000002,0.008874767130679691
1.1520000000000006,0.00907452260447738
1.1280000000000001,0.009818370755060321
1.1040000000000003,0.010395651759827181
1.0800000000000005,0.010857950701439547
1.056000000000001,0.011408495025771107
1.0320000000000005,0.01190852041151437
1.0278245071736636,0.01199999999999997
1.0080000000000005,0.012428633278256763
0.9840000000000005,0.013031450862252457
0.9600000000000004,0.013780800362544117
0.9360000000000005,0.014572768567660249
0.9120000000000005,0.015430200459681439
0.8880000000000003,0.0164041766185958
0.8640000000000005,0.017473397443531474
0.8400000000000003,0.01863293828692845
0.8160000000000001,0.019923421619008196
0.8148129186684568,0.01999999999999956
0.7920000000000005,0.02140268983268817
0.7680000000000005,0.023008696729305656
0.7440000000000009,0.024823267173009186
0.7200000000000009,0.026843899397780202
0.7081932421675237,0.027999999999999046
0.6960000000000008,0.029201023708252456
0.6720000000000008,0.03209743984676923
0.6480000000000008,0.035505735460135204
0.645508857753172,0.03599999999999838
0.6240000000000009,0.03994850225497845
0.6078248213299731,0.043999999999997735
0.6000000000000008,0.04613375246467184
0.5824621058850157,0.05199999999999694
0.5760000000000003,0.054410081080096574
0.5619413548525414,0.05999999999999626
0.5520000000000003,0.06389661081061337
0.5416574754829051,0.06799999999999566
0.5280000000000005,0.07472817877376745
0.5252257319075143,0.0759999999999949
0.5143554094483889,0.08399999999999436
0.5064616630339869,0.09199999999999338
0.5039999999999996,0.09410064302711504
0.49705247672684433,0.09999999999999275
0.49348054078793,0.12166666666665968
0.49738373935757074,0.14333333333332615
0.4699673204157635,0.14333333333332593
0.45599999999999863,0.1318595202617672
0.479999999999998,0.1513446421523649
0.44690268406965206,0.12166666666665885
-0.6456409293356251,0.03599999999999701
-0.648,0.035516657825574
-0.6080294655408903,0.04399999999999651
-0.624,0.040030358860568105
-0.5826756229458167,0.05199999999999569
-0.5999999999999998,0.046190013658057055
-0.562229506662628,0.05999999999999488
-0.5759999999999998,0.05447309925934077
-0.542767415528618,0.06799999999999413
-0.5519999999999998,0.06421920072003848
-0.5245532300484279,0.0759999999999933
-0.528,0.07460012413290135
-0.6719999999999999,0.03207043139931983
-0.5124651460553226,0.08399999999999255
-0.44142797097355296,0.12166666666665729
-0.43200000000000044,0.1040961463962953
-0.7086560146648803,0.0279999999999979
-0.72,0.026855052404309986
-0.696,0.02928461127030216
-0.504177845916175,0.09199999999999176
-0.4941315572696251,0.09999999999999104
-0.5040000000000004,0.09213194743328645
-0.4560000000000042,0.13711135433964056
-0.744,0.024837188314295378
-0.49209803101365823,0.1216666666666577
-0.46614578622191394,0.14333333333332454
-0.768,0.02305175360865907
-0.4955669417749926,0.14333333333332476
-0.4800000000000062,0.1517397974654425
-0.815371581186487,0.019999999999998762
-0.8159999999999997,0.01995918170166875
-0.7919999999999998,0.021444341786972798
-0.8400000000000001,0.01865557345707937
-0.8640000000000001,0.01747261757025759
-0.888,0.016445505950933317
-0.9120000000000001,0.01544864026070064
-0.9360000000000002,0.014590403789842676
-0.9600000000000002,0.013818996255562092
-0.9840000000000002,0.012996907638887984
-1.0221405315824292,0.011999999999999626
-1.032,0.011762954961450994
-1.008,0.012339942784429946
-1.0560000000000003,0.011263630143952114
-1.0800000000000005,0.010788715322007626
-1.1040000000000003,0.010364845239937012
-1.1280000000000001,0.009939813844212683
-1.1520000000000001,0.009412291932253961
-1.1760000000000002,0.009193558525777495
-1.2000000000000002,0.00808270516588662
-1.4300000000000002,0.005953994216730215
-1.7702210079963976,0.004000000000000097
-1.8900000000000001,0.0035568264703694707
-1.6600000000000001,0.0044129948767652
-2.12,0.0030426370809982645
-2.35,0.0026736715274653993
-2.58,0.002425047093955836
-2.8100000000000005,0.0022461490901000045
-3.04,0.0021233485862503293
-3.2700000000000005,0.00205458573592292
-3.4999999999999996,0.002038258546360785
-0.35602787140143793,-0.040563121339901184
-0.35847343763173384,-0.03852111945024403
-0.3545696090984998,-0.0421471112161014
-0.3623770280443805,-0.03453868562338631
-0.3603434074082111,-0.036653987480898854
-0.3641020491054884,-0.03274522565429
-0.3525338868990119,-0.04447170636265751
-0.36628051621269364,-0.030403202527396266
-0.3677403368278236,-0.028836544229979645
-0.3508080749173443,-0.04642598472459315
-0.35066630229244383,-0.04655407497993135
-0.34871433815583314,-0.04829242060227184
-0.34862495872651333,-0.048380568587907555
-0.3466374760325452,-0.05033502175857743
-0.3467624952939758,-0.05021230208540795
-0.37018318806179606,-0.02504577342039509
-0.370261864986477,-0.024928608855228702
-0.3448105856330556,-0.05203219221678928
-0.3445373467930692,-0.05228955018258846
-0.3423918134109604,-0.05424410893877259
-0.3428586439189782,-0.05380410207387832
-0.3727202172705979,-0.021020715685025438
-0.34090671951591395,-0.05560192473485823
-0.3402688884702806,-0.056198652591416876
-0.3381609803341285,-0.05815318621211328
-0.3389548045203915,-0.05741382951505345
-0.37408574882989304,-0.019522067429703017
-0.3370028894558402,-0.05922563097369865
-0.3360352612081796,-0.06010773173141375
-0.333784511891849,-0.06206236077695251
-0.33505095197547613,-0.061003878237162565
-0.3762427635684086,-0.01711211158160752
-0.33309892156447823,-0.0626430179356888
-0.3311596964641109,-0.06401723971678842
-0.3779891039082745,-0.015187362368122069
-0.37980155669340954,-0.013203483263537026
-0.331146720943963,-0.06402737146243175
-0.32919453934227966,-0.06544019419111355
-0.32857277869973434,-0.06597209333915473
-0.3262429086657733,-0.067926775241168
-0.32724251161027107,-0.06708334404131015
-0.3818918523366368,-0.009944564554778268
-0.38231230718652415,-0.009295555088799921
-0.3207899970130388,-0.07183666892227653
-0.3213859933346562,-0.07136152412067287
-0.32529048640156444,-0.06873027101187673
-0.323642990305666,-0.06988163754855463
-0.3233382811579414,-0.07010770419092635
-0.3845108655256363,-0.005387835473559432
-0.30264611689846277,-0.08266349690633243
-0.30202232343159197,-0.08300121871630736
-0.30100234327045616,-0.08350568635100575
-0.29928325953519797,-0.08413569905413806
-0.3194338843132431,-0.07288299206914786
-0.31817605438726787,-0.07379154059855147
-0.3151316519823629,-0.07574669984286322
-0.3155293560107682,-0.07546150115887061
-0.385794091920036,-0.003940078090655584
-0.3882221243348123,-0.0014791053010294766
-0.29367062839222985,-0.08620688397437515
-0.2954536498716436,-0.08555143620554871
-0.2915654444925984,-0.08698003307143298
-0.2895589925587902,-0.0877099099791338
-0.2876576338418138,-0.08839646169460247
-0.28570215224163104,-0.08910087080239258
-0.28375981794619454,-0.08980442659421684
-0.2817957039399503,-0.09052208772543804
-0.27984480551016927,-0.09123907320155869
-0.30297944461716625,-0.08257122826064524
-0.30487178887868205,-0.08176670159452995
-0.3048349458626395,-0.08180538872291826
-0.2973622261110795,-0.08485019003017988
-0.31748170674211457,-0.07430184815089462
-0.3135771228272167,-0.07679711114688886
-0.3121517036732613,-0.07770181602868863
-0.3896972742230884,6.532538895931984E-4
-0.2602932325113393,-0.09829215924684795
-0.2583357044978891,-0.09899096788371002
-0.2564632512219917,-0.0996607675056872
-0.27797493093998005,-0.09192501599742893
-0.26226361470744053,-0.09758335265101041
-0.26420197301901305,-0.09687722622844903
-0.3049306791275468,-0.08173091547561083
-0.3057674968071036,-0.0811017733296339
-0.30542424693647563,-0.08161256116775643
-0.31162483389570944,-0.07804927218299146
-0.3908692042157429,0.002428913948359684
-0.25442040139696653,-0.10038790773563917
-0.25246369453790096,-0.10108896779466205
-0.25067335532004265,-0.1017375398843737
-0.27594272339320775,-0.09267226204166194
-0.2739895375149103,-0.09338297584430556
-0.2721931504667344,-0.09402579443155874
-0.2700773096017405,-0.09478834717489122
-0.2676999954838893,-0.09563330507630546
-0.2661576478149643,-0.09617333648267748
-0.2680684381281333,-0.09550460141653608
-0.3096724210407982,-0.07911593260659378
-0.30876358489010836,-0.07965720489220043
-0.3077200631099807,-0.08026480875373951
-0.39466806405330035,0.010243953514258507
-0.40474871467975926,0.025875691364352544
-0.4053047091764606,0.026951543471299532
-0.41170641713251366,0.04150534293358553
-0.40856685348115535,0.033690743809531666
-0.23685014750071381,-0.10680741500216491
-0.23498249835043844,-0.10748127032896324
-0.24856025195693726,-0.10251842654592022
-0.2465632816219377,-0.10325934932666744
-0.23880292931294586,-0.1060955933405244
-0.3975008855074516,0.013961357667985353
-0.4005847844113482,0.018060407913709428
-0.41310313508194196,0.048021626872310375
-0.41339003277106107,0.04931896941373813
-0.4322975074015641,0.104019112726676
-0.4364989076541072,0.11049112881385559
-0.44255938381107846,0.11965097164440931
-0.45210961606008965,0.13188939608355635
-0.45517368458202206,0.13528440209570858
-0.46772429932088655,0.14733771395551187
-0.21394533312950106,-0.11509858639110762
-0.21534823352060445,-0.11457901492302171
-0.22316073894858907,-0.11173550693583668
-0.22351370516869212,-0.11160874308718817
-0.22120219984805564,-0.11243154339752354
-0.21926560616195326,-0.1131257827150138
-0.21729520076451497,-0.11385125101233934
-0.23294018321763188,-0.10821899270139657
-0.2309848081721891,-0.10892370429617598
-0.2291943845821643,-0.10956110130156618
-0.22706988325784233,-0.11032168105130027
-0.22506969728922627,-0.11104581390162938
-0.24466131381924394,-0.10396023547567922
-0.24270859742937467,-0.10467223651084878
-0.2407720732289882,-0.10537503958790563
-0.4166814385838999,0.05713366997572507
-0.4283092846934276,0.08839144491395566
-0.47539883813338646,0.15092291696586185
-0.20948625005275165,-0.11670450523825032
-0.20770161458130135,-0.11734670722525803
-0.2055770034857176,-0.11811805075475504
-0.20358007570174758,-0.11884313153119154
-0.21304704616768552,-0.11542621586933453
-0.21144369487876466,-0.11600546851998672
-0.21348941602267585,-0.11526792385687573
-0.4209025433902237,0.0676211541511614
-0.42440239583135486,0.07276383143618372
-0.19979873318555402,-0.12025823286864762
-0.20167165931524225,-0.11954229577195663
-0.1841189308278477,-0.1260098537994787
-0.18212877258526747,-0.12674549768663557
-0.18997917538331355,-0.12387959577442442
-0.18802833317490047,-0.12459673539699771
-0.18624638639004187,-0.1252351175236804
-0.19973065341281088,-0.12028640435090254
-0.19781514658710586,-0.12103006414421671
-0.19388287102455937,-0.12245083085790312
-0.1920225541674599,-0.12312642184464788
-0.1490188747958549,-0.13865146976989512
-0.15018247728690093,-0.13826095695150492
-0.11760049732297105,-0.1500123875961769
-0.11773610414071473,-0.14996320303586813
-0.17828649715109768,-0.1282163630488749
-0.17635284659576386,-0.12890185945801508
-0.17436450256525515,-0.12959495634210103
-0.17240760715737197,-0.13029549944230695
-0.1705492264224841,-0.13096714395923387
-0.18022851847656307,-0.12747503853335052
-0.1958388329064838,-0.12174772823780408
-0.1469138366563458,-0.1394531183318059
-0.14695826533984388,-0.13937596035511585
-0.1508875320598193,-0.13801730563116427
-0.168496801633568,-0.1317047706471794
-0.16644036803370563,-0.1324479485377411
-0.16263896013836776,-0.13384161732728836
-0.16064631023826653,-0.1345624197407002
-0.11747409993935887,-0.15005876303332236
-0.11960372459018923,-0.14929870457031338
-0.1186028282062547,-0.14965867435298869
-0.11814062243169643,-0.14984341612849295
-0.11760656237781608,-0.15002901662334378
-0.14697922841240862,-0.13943343642288997
-0.15470694725278766,-0.1367044231457888
-0.1528566805923227,-0.13735035786479055
-0.14756843958824878,-0.13926784604917558
-0.14757111916347065,-0.13930705207507968
-0.1587304227912137,-0.13525710736647145
-0.15677676058560996,-0.13596651518593367
-0.1548479274185113,-0.13665677952657873
-0.16467827681511787,-0.1330944091197967
-0.12165103515023745,-0.14855930268097917
-0.12210944515856534,-0.14839587945652502
-0.12342585092866727,-0.1479462881092986
-0.12492188381293517,-0.1474117349713126
-0.1196107306022378,-0.1493179134921948
-0.14499278128817594,-0.14036072899130503
-0.14702511539216237,-0.1395592482832215
-0.14225441970673156,-0.1413866893342604
-0.14323493445317517,-0.14101954333805766
-0.12290891703927287,-0.14812369434080588
-0.12248661738732591,-0.1482999423062597
-0.12165989495208068,-0.14858359428086038
-0.12343333259561681,-0.14796680117078753
-0.12945486655229788,-0.14597876941333468
-0.12830608030157734,-0.1464740248469826
-0.1411985751313677,-0.14178191596426204
-0.13859202029098108,-0.142722465161637
-0.13728600371879784,-0.14318634549614145
-0.13921091123769153,-0.14250836626733465
-0.13532482179553407,-0.14387513592753706
-0.13339394580792985,-0.14455133545748755
-0.1314064310068688,-0.14526361002857835
-0.1276349894214347,-0.14673732204323284
-0.10794020183414132,-0.15371540965532782
-0.10609572667792148,-0.15439711105138468
-0.1104712168534483,-0.152838386885469
-0.10990235623720175,-0.15302928554653356
-0.1256023711916588,-0.147547914075671
-0.10461194181800454,-0.15497542249242557
-0.1136820588004948,-0.15180779984057113
-0.11190927197156972,-0.15236171591540365
-0.12354834171373563,-0.1482821305122246
-0.1197327333787308,-0.14965241788447403
-0.11775479341660647,-0.15043543305890336
-0.09820753076473633,-0.15736016556728932
-0.09621647409049566,-0.15806122903991973
-0.10405292654809989,-0.15518919552217048
-0.10201646038408804,-0.15596377832758168
-0.10025819138969488,-0.15662289460147122
-0.00634638453557266,-0.19054992253850245
-0.004468708005629322,-0.19123248755089245
-7.899096789070517E-4,-0.1925716618054246
-0.0023729429789508035,-0.19199471884007094
3.633681317423491E-4,-0.19299272528953815
-0.007873595666996563,-0.18999396431496968
-0.11584395945736128,-0.15112209482760078
-0.113861110051001,-0.15175147785476012
-0.12177069064298843,-0.148887371344967
-0.09428856149327212,-0.158747053597543
-0.09308631705041141,-0.15931962224267948
-0.016072013417672473,-0.1870120030448778
-0.016013903952925998,-0.18703291707518765
0.009890435839531501,-0.1898543767753355
0.010000053169350197,-0.18981466207169323
0.011822007808263611,-0.1891572964374681
0.013592103648604185,-0.18851819827895122
0.007948722476141673,-0.19055791726159765
0.006069916207515855,-0.1912395010951411
-0.002543669482077425,-0.19193258693690096
7.983410887399357E-4,-0.19315280804772145
-0.014247093105950246,-0.18767160815011905
-0.012190324381180603,-0.18842006576025644
-0.010218321403967195,-0.18913931001340878
-0.008288522736408958,-0.1898432203195059
0.01861174107093022,-0.1867073244892664
0.01762167595107515,-0.18706344864824395
0.11346592494283819,-0.15225235755445557
0.11408759371654958,-0.15202917052114914
0.10830296319625805,-0.15413022856118946
0.10952437013670856,-0.15368147206208876
-0.07933402450519196,-0.16419496058205288
-0.07874565819259713,-0.16435832571143624
-0.0816161976641839,-0.16350308408666445
-0.08054653468204824,-0.16381528657534628
-0.07804383527122698,-0.16466552738698967
-0.07836794563817563,-0.16454000326576887
-0.07818229618553249,-0.1645964104833915
-0.07796332134103041,-0.16465274179033196
-0.09243377685233267,-0.15972756163811158
-0.017867821988083718,-0.18636935737671848
0.01379607117979675,-0.1884447500042863
0.01585450377222843,-0.187701093607778
0.0041440191989050735,-0.19193930738382714
0.0029245322889140685,-0.19238458939612585
0.0022763585415739944,-0.19262001509164017
0.01966181802503364,-0.18633021916086145
0.1114779148954034,-0.15297174701893232
0.11538567086572915,-0.15157618311519377
0.10798976230455534,-0.15426247968874574
-0.09236763705847224,-0.15979248461107864
-0.08264894333349519,-0.16322929975202605
-0.0841994277268482,-0.16277165081867576
-0.07721071577306178,-0.16510988213082495
-0.07828762437103268,-0.16461594913137662
-0.07677403287193137,-0.165319347134751
-0.0748357721097256,-0.1661571026607474
-0.019270964375842692,-0.18587609472487737
-0.01805545269611914,-0.18630351159381225
0.0023889229963580095,-0.19257977628119094
0.020975542039257028,-0.18586725141027147
0.021744842881860977,-0.1856103541828486
0.021867378085777392,-0.18557106251712646
0.11468737763387765,-0.15185755123179756
0.10894415716826618,-0.15394356856560995
-0.09059324243511999,-0.16063445649637992
-0.08665060056900198,-0.16206912367010817
-0.08861347846058623,-0.16138498320543745
-0.08477196846750051,-0.16264771026421915
-0.07291386080889403,-0.1668674439918872
-0.07264653672077535,-0.16698530170446402
-0.0652013179155374,-0.16998502694567072
-0.06475971095455936,-0.17017795033099598
-0.020031296718104212,-0.18562653283760336
-0.02079322567313397,-0.18539026453378618
-0.020141765356831078,-0.18559252112161245
0.02260596276997957,-0.18534440580915382
0.10181845882747051,-0.15652356309453772
0.10262452664678248,-0.15623894602674826
0.10359171330281264,-0.15590563436884283
0.10564546208062472,-0.15517851131167232
0.09977261906760912,-0.15727407336219212
0.09994379207046653,-0.15720937487356917
0.10141855456308702,-0.15667384705134157
0.09975180686501485,-0.15728235769722362
0.11348483526377336,-0.1523044214259103
0.10954791977286794,-0.153746308890293
0.10630861566441882,-0.15494244128958767
-0.07097997625076784,-0.1676310777080047
-0.06908270991331093,-0.16837388766039044
-0.06711124569143383,-0.16915570907782945
-0.06339775491965044,-0.1707599150036796
-0.021468017377400183,-0.18520659140139273
0.02333522565707622,-0.18514193865408735
0.06658466579703626,-0.16940081642656807
0.06854304269990681,-0.1687043952365965
0.0661690098128757,-0.16958411412747326
0.10152015674704434,-0.15668167598615085
0.09977306412614453,-0.1572752986967833
0.09232184910970109,-0.1600850401448285
0.09394198936023061,-0.1594858570318789
0.08439235667801563,-0.1629651417811544
0.0841764860232342,-0.1630405956055682
0.08624687234576944,-0.16231478391225826
0.08810540600641922,-0.16168124912982815
0.08407212015870098,-0.16308145612677483
0.11150548785560299,-0.15304766085774343
0.10771516923142127,-0.1544603286080966
0.10956791623791087,-0.1538013631323124
0.2344695574288847,-0.10868906299189429
0.23467855744172464,-0.10860961412915734
0.26011046484452177,-0.0994818233985857
0.262063212157063,-0.09876990282770946
0.2582453259612944,-0.10017171790373408
0.23859567001787474,-0.10721775951544057
0.24055435468233044,-0.10652218565428996
0.2353691863123801,-0.10836230530320583
0.2367236646482885,-0.10787959955741169
0.36184924686278097,-0.03713644720592672
0.3602765729572196,-0.03874533919076466
0.3580697304304857,-0.04104017317723032
0.3536745473031169,-0.04494348785332626
0.35636765586317076,-0.04273640029470005
0.3516983991549751,-0.04689529312632532
0.35245914771792725,-0.04611530707217083
0.3641855401903367,-0.03467922503090141
0.36556953456996033,-0.03323268166695084
-0.06134351781771113,-0.17153962720217664
-0.02203656734700908,-0.18508701289983084
-0.022096126918935255,-0.1850711653118956
0.023630069489896117,-0.18507916024521104
0.02455088778084874,-0.18479401017005298
0.06951048455241218,-0.1683704441545246
0.0672831818232886,-0.16927304826033623
0.06660836364718332,-0.16946606131733394
0.10338748889365922,-0.15606584629057868
0.10183893318545426,-0.15657993307079077
0.10567909696131175,-0.1552711148222189
0.10362103271428713,-0.1559863565350725
0.09435654697322803,-0.15934600965873946
0.0939540961062418,-0.15951918930953551
0.08887459973709907,-0.16143074579267655
0.08418307665297507,-0.1630587409189554
