"Plane Section: Position[X] (m)","Plane Section: Position[Y] (m)"
3.5,2.1197601905015805E-4
3.2699999999999996,2.1158944356639117E-4
3.0399999999999996,2.161892619372928E-4
2.8100000000000005,2.2564473864518744E-4
2.58,2.491694864976447E-4
2.35,2.69822981531272E-4
2.1200000000000006,2.958720229426905E-4
1.8900000000000001,3.536151614818466E-4
1.6600000000000001,4.1059026524727267E-4
1.4300000000000002,5.131132800204418E-4
1.2000000000000006,6.140037408048215E-4
1.1760000000000002,6.555310150063755E-4
1.1520000000000001,6.684109416511251E-4
1.1280000000000001,6.721934502081798E-4
1.104,7.096838366367339E-4
1.0800000000000003,7.523500613833735E-4
1.056,7.887398406681728E-4
1.032,8.257931563527331E-4
1.008,8.558981688592324E-4
0.984,8.889280377966687E-4
0.96,9.247188531079859E-4
0.9359999999999998,9.608306925399389E-4
0.912,0.0010016785262534314
0.888,0.0010450085413328558
0.8640000000000001,0.0010938654302588273
0.8400000000000002,0.0011461345569550654
0.8160000000000001,0.0012057295077786434
0.7920000000000005,0.0012712363462516166
0.7680000000000007,0.0013433554263905703
0.7440000000000007,0.0014225567413784826
0.7200000000000004,0.0015172844026254174
0.6960000000000006,0.001620429682117968
0.6720000000000004,0.0017484339172230694
0.6480000000000005,0.001875866907012771
0.6240000000000003,0.0020514973069862665
0.6000000000000003,0.0022537634282944656
0.5760000000000003,0.0026135845211097265
0.5520000000000003,0.0030834776083099287
0.5328297475250159,0.004000000000000449
0.528,0.0042708412128616546
0.504,0.0068272791337769265
0.4800000000000001,0.008358321932420731
0.45599999999999996,0.006081036118403533
-0.4800000000000003,0.00872016419526507
-0.45600000000000007,0.005985168625478552
-0.5040000000000003,0.006679833045783988
-0.5300961642423012,0.003999999999999035
-0.5519999999999998,0.0031396454304203985
-0.5280000000000001,0.004095882007290833
-0.5760000000000001,0.0025962344978991128
-0.6000000000000001,0.0022806911921170606
-0.624,0.0020532297975564893
-0.6479999999999999,0.001902641266586052
-0.6719999999999999,0.0017567991287382938
-0.6960000000000001,0.0016352818565223103
-0.72,0.001528218560933158
-0.7440000000000001,0.00143552213477772
-0.768,0.0013491914957413616
-0.7919999999999999,0.0012763112341404323
-0.8160000000000001,0.0012100838815068031
-0.84,0.00115436892640062
-0.8640000000000001,0.0010999485422994281
-0.8879999999999999,0.0010501751321030767
-0.912,0.00100418104799782
-0.9360000000000002,9.610672013676153E-4
-0.96,9.217085509758966E-4
-0.984,8.882453006471415E-4
-1.008,8.527425517918353E-4
-1.032,8.223881841185381E-4
-1.056,7.899654234535582E-4
-1.08,7.628080419827716E-4
-1.104,7.373252693700698E-4
-1.1280000000000001,7.062503622240473E-4
-1.1520000000000001,6.844358789653325E-4
-1.1760000000000002,6.554498695172275E-4
-1.2000000000000002,6.063457742636928E-4
-1.43,5.184465111532417E-4
-1.6599999999999997,4.120652830675002E-4
-1.89,3.553390877924004E-4
-2.12,3.196672400599922E-4
-2.3499999999999996,2.648586620541848E-4
-2.58,2.4254552082516353E-4
-2.81,2.3797843858159142E-4
-3.04,2.1650049203878613E-4
-3.2699999999999996,2.0650021196878907E-4
-3.5,2.0966044179098245E-4
-0.30020159155630033,0.030405369478804987
-0.2994691716314124,0.030159775868578993
-0.2938222332777253,0.02813781180882053
-0.2956112215016895,0.028779339160454165
-0.29171411756634924,0.02737225164505365
-0.28970589785490825,0.026647165231103713
-0.2878046061771182,0.02596041963452468
-0.2858499350120337,0.025253782444390496
-0.2839072579627204,0.024551161096057105
-0.28194098604163953,0.023839411646120415
-0.2799867501780129,0.02313157223521359
-0.2975269056896831,0.029470731122643888
-0.30126698296388943,0.03070978538290399
-0.2781142601204812,0.022452796732929874
-0.3030867146300073,0.03153857966962848
-0.26045651888627114,0.016019959363994234
-0.2585047423699468,0.015305383402257643
-0.2566376269845774,0.014620951103557878
-0.276078950529597,0.02171405248053742
-0.2741253124557043,0.021004575626680372
-0.27233103332662967,0.02035597243076571
-0.27021885075922025,0.01958339100482601
-0.2682149719772558,0.01885344684400496
-0.26436075786874397,0.01744723235978659
-0.26242309619419524,0.016739196740152097
-0.3035763044138541,0.03119767913675086
-0.30235681385486346,0.02995046729741388
-0.30008401713436517,0.028914311718107336
-0.3012176425489402,0.029326347705215295
-0.25460185662783,0.013874403661789837
-0.2526506915130765,0.013158152972020155
-0.250862173599578,0.012504588057919697
-0.2663132116750223,0.01815995311460808
-0.30198508156376,0.029592214358712454
-0.29947169228967485,0.02862574319683287
-0.23704900566163106,0.007407233769354427
-0.23518709872850396,0.00671764313879247
-0.2487488729767514,0.01172424998205695
-0.24675009867267517,0.010988278855456713
-0.23899848380738808,0.00812810534058354
-0.2954517238154648,0.02687347096681989
-0.2961280962658403,0.02713914996440898
-0.2980806022616159,0.02777477922039817
-0.23315067462987832,0.005963777939097487
-0.2312017854816778,0.00524129300809462
-0.22941884761042503,0.004583377997488295
-0.22730429597818486,0.0037955320954958247
-0.22531017033028028,0.0030547942157644844
-0.24484818041167367,0.010287262774280674
-0.24289800564561853,0.009568299358965403
-0.2409653942503419,0.008854775245341754
-0.2941774573192888,0.024997861096132855
-0.2941679966777824,0.02499338952838356
-0.22508286379720505,0.0029699252165740686
-0.2934211506347566,0.02303953519589734
-0.2918968254137088,0.02108492258320481
-0.2922272855314055,0.02156026244622649
-0.21562841808829947,-5.871950409349466E-4
-0.21377470335546217,-0.0012900723330493689
-0.22340956673529666,0.002342210381757154
-0.2214633945754655,0.001612283179263249
-0.21953774938500856,8.880436993149196E-4
-0.21757281829451772,1.4758582969179513E-4
-0.2902763445037126,0.019320041574934325
-0.2901187494099832,0.019130062485792045
-0.2097984535249558,-0.0028004017327325366
-0.20802523871933293,-0.0034738943607388675
-0.20591401035409337,-0.004281898664797865
-0.20392988563404346,-0.005042052138572809
-0.21174108456151464,-0.002060774819685104
-0.28835809808773377,0.01717521938279329
-0.28832534906141266,0.017135613039871607
-0.2867930158848686,0.0152205670195416
-0.20247515994362675,-0.0055997313722151755
-0.2863747458598824,0.014549012577290386
-0.28559072775435596,0.013266268491605105
-0.18851142773826568,-0.011160677922950949
-0.19044380498292432,-0.010392964212063326
-0.1881726588288612,-0.011295437962682906
-0.20203399300203706,-0.00577551863188243
-0.20010417155281995,-0.006550233080706544
-0.1981949848474027,-0.007311167093913501
-0.19430791200258682,-0.008855763265964876
-0.192468751889875,-0.009589308732017863
-0.2848856232034615,0.011312454869874346
-0.1846453447475789,-0.01269246636418281
-0.18264191425373327,-0.013391747464537498
-0.18675033606796818,-0.011856195564050077
-0.1962399733589854,-0.008087184285952157
-0.284810305893105,0.009359255483511165
-0.15007257140033925,-0.024730613494892115
-0.1494054683232927,-0.024951231701033205
-0.16309936730164606,-0.020343431991484896
-0.16107850323014417,-0.020986956534179913
-0.17880809066417552,-0.01488570587912061
-0.17685412786811056,-0.015515580682163667
-0.1748804151911444,-0.016248782528913916
-0.17292392884464242,-0.01695045750249736
-0.17105395218916564,-0.01759034436813013
-0.18074829244649007,-0.014139424845009817
-0.285551919702399,0.007406852855129336
-0.1452773202644213,-0.02638074485246488
-0.14733792622103423,-0.02565675573010356
-0.14351037696514823,-0.027014627885908783
-0.14146670413175658,-0.027756951371769343
-0.15127263989149187,-0.024312957843748796
-0.15913577997806105,-0.021608140262381274
-0.1571658577765461,-0.022273012251520286
-0.15522908393323265,-0.022941537213714815
-0.1690010969862455,-0.018326801597775413
-0.16515788055069766,-0.019648808881726418
-0.1665370200447302,-0.019194071727414202
-0.16693820029725548,-0.01905228211402785
-0.139479486781419,-0.028484623861810512
-0.12975228603919256,-0.03203411064681874
-0.12790524701020592,-0.03271818291625454
-0.2873847892188256,0.005455514535151075
-0.2863825892948274,0.006506989238415395
-0.1532365364737104,-0.02363158070675858
-0.12585051766518007,-0.03346815103960511
-0.13756284626232074,-0.029185268297914797
-0.13561066781353992,-0.02989874330152991
-0.1336899431149155,-0.03060277274323788
-0.13170524748928047,-0.031322780410692044
-0.2883373111461295,0.004870659594704561
-0.12380255042362673,-0.0342189858026442
-0.11999265335641976,-0.03560493580697255
-0.1179977243383376,-0.03634136364034948
-0.10828315121962725,-0.03989556068162231
-0.10644005075237666,-0.0405810202926947
-0.2906962724034708,0.00350561831619661
-0.290291547809044,0.003731802861422436
-0.11609047765599109,-0.03703786046663785
-0.1141396721253089,-0.03775509611545139
-0.11222515121251726,-0.0384676377857447
-0.11023622126308633,-0.03918452790031776
-0.122038678718194,-0.03486200710075438
-0.09852294113506971,-0.043464804244716125
-0.09654798951664556,-0.0442100035172286
-0.10437868153850063,-0.04132220175639487
-0.10233206736792852,-0.04206896103615725
-0.10056753312907588,-0.042710901042201786
-0.2922454733366804,0.0029119590582246764
-0.09462395267171339,-0.04490645926328437
-0.09267336086181795,-0.04562428032797069
-0.0031834745357523083,-0.0774447389304184
-0.0027037746528683904,-0.07761596237112113
-0.004832219255226505,-0.0768613265164973
-0.004634863207209659,-0.07693110930527183
-9.470599156217907E-4,-0.07825032696528508
6.436921089380606E-4,-0.07883046669290021
-0.29615299602143974,0.0016089559853954896
-0.29419927487644515,0.0022192423822153793
-0.29634097156202244,0.0015579976971827627
-0.09076370713303139,-0.046341648158788135
-0.08683103992366585,-0.047803640906575406
-0.08877535171608153,-0.04706861785624323
-0.08556830878721226,-0.04827951592064076
-0.08439635560452746,-0.04870736688782405
-0.08292573512666283,-0.04922799446360736
-0.08087970376310262,-0.0499685603138734
-0.06530167116773603,-0.055500100427582015
-0.06346296483162546,-0.05617862690201754
0.0022366817178944734,-0.0782569938639433
0.0032541496442845107,-0.0778946875788453
-0.0065208672535165685,-0.07627021787511834
-0.0066468623268584204,-0.07622660038397747
0.2599400893710947,0.014896620026475247
0.261894027799112,0.015605260613006712
0.25807085825718207,0.014217992226881955
0.24041108120434002,0.007781619281192063
0.2388565449550975,0.007213190194568935
-0.3039667126725099,3.653102045075681E-4
-0.3020133439028193,6.142994702974299E-4
-0.3000599449894863,8.941955983052667E-4
-0.29810650519918247,0.0012160036516826555
-0.08499442149651265,-0.04849739976273393
-0.07912180457009617,-0.050629417267563114
-0.07877710733944485,-0.05075881471065393
-0.07708001308045535,-0.05139803885605283
-0.07510673882950208,-0.052139776938190774
-0.06987985425901398,-0.05400698058620776
-0.0692940539067098,-0.05419314674181545
-0.067263310942209,-0.054812541528432124
-0.061399648675688125,-0.056933444749859105
0.004388460600026883,-0.07750157472320196
0.003998843047727058,-0.07763605005746069
0.006029848070200563,-0.07693370605992442
0.0059364062931958434,-0.0769667727418064
-0.007894812430315638,-0.0758126372293344
0.017870237225720204,-0.0727412371558008
0.017514461761054152,-0.0728586855016381
0.26580246707317823,0.01702099185355037
0.26386271907274894,0.016318690845968462
0.25603289583985367,0.013477455721462446
0.2540796072052107,0.01276702441011461
0.2522909261604186,0.01211389510064338
0.2481724550253247,0.010615107288256903
0.25017356151493864,0.011344696842236022
0.24626824902911984,0.00992034868215485
0.24431572417162445,0.009207812525376825
0.24238061317804813,0.008501122564420118
0.23845961048305248,0.007066178096515822
0.23660660972354758,0.006351979490321084
0.27557646874915853,0.02055231840662509
0.27753161641486745,0.02125762653089159
0.27378232391850776,0.019903369078181854
0.27956833254374636,0.021992483588825905
0.2814419700806912,0.02266808201929061
-0.30787339418333964,-7.522120697154592E-5
-0.3059200597418396,1.3857071577512268E-4
-0.05935888789655688,-0.05768064952780013
-0.07318173251228416,-0.052841632914258044
-0.07122879733049461,-0.0535530351035344
0.01574970576175911,-0.07350299070679102
0.015417808713065443,-0.07363114037009198
0.008260681443147476,-0.07616581506852513
0.007827104119308013,-0.07631604555110669
-0.00849086039239119,-0.07563920016641135
-0.008815994925460997,-0.07553878500520016
0.017525965079136112,-0.07289038687749391
0.23263644364696034,0.004833747504153297
0.2345790601663954,0.00557358942816156
0.23085938605461498,0.004159579153520144
0.2287446985330086,0.0033720098752339314
0.22674922713577797,0.002634900403432669
0.27166651681875603,0.019140755800845802
0.2696606826101935,0.01841619729678165
0.2677569792553691,0.017728051266973167
0.28233405865874794,0.022989706769474358
0.2970962898872902,0.028233713394502997
0.2953059250818117,0.02759550722953281
-0.31066975803767016,-3.811532779411128E-4
-0.3098267257666499,-2.8608257730439933E-4
-0.31568666538950796,-8.621438344901258E-4
-0.31373333818623034,-6.557733955104689E-4
-0.3117800358791353,-4.7492949233021383E-4
-0.057597378850092244,-0.0583323701455232
-0.05554913905129848,-0.05909037518970746
-0.05357178439432667,-0.05981286669072469
-0.05163834861450642,-0.0604997026903087
-0.049687374947111854,-0.061216477785401506
-0.047786183353085696,-0.06193993553068965
-0.04397167369419907,-0.06346541312124912
-0.04579942246517236,-0.06268836214567726
-0.04209305910999817,-0.06430230895543851
-0.043885032802150455,-0.06350534675791236
0.013707335632764252,-0.0742909592634774
0.011738812503404222,-0.07501906135095657
0.009595465797361726,-0.07574387132931516
-0.009265940635736991,-0.07546819391436457
0.0170058986220915,-0.07309173112089529
0.01609717706981503,-0.07345044655773783
0.01615666359334382,-0.07345664138811847
0.2248437761930429,0.0019355631876849836
0.22289244474226988,0.0012197381961175113
0.22096109951436554,5.110815526092141E-4
0.21523126468951218,-0.0017589919429639063
0.2170674141782783,-0.0010075562655117011
0.21321084169782337,-0.0025662239481980217
0.21133833526556997,-0.003298771809207217
0.2911809076267191,0.026128938796834783
0.29319275904159514,0.026843844733621385
0.28731735595195695,0.024756603020446036
0.2892759684098289,0.02545234001381423
0.2853703212982683,0.024066015909564916
0.2833994036937334,0.023367090444729302
0.29901634695010715,0.02891812517176178
-0.32154689146076076,-0.001731906105027946
-0.31959344399684186,-0.0014022301355756687
-0.31764003115442346,-0.0011080522543698325
-0.323500343389162,-0.0020661595828591135
-0.04004969251791851,-0.06512134445454963
-0.03804925945476852,-0.06597120693976213
0.015803580671711726,-0.07365146718798572
0.015649141485686816,-0.07378121359618134
0.00979408355293302,-0.07568075585009962
-0.00965264059801545,-0.07546752872241166
0.08627516704567584,-0.04848360059240992
0.08812197219889602,-0.04781777882566028
0.22047683516013517,3.332018268175824E-4
0.21899957500674083,-2.3890015876170642E-4
0.2095056997656602,-0.0040091677015035715
0.2112746107214636,-0.0033236633896979043
0.20543618006518663,-0.005648934924575372
0.2074049777531202,-0.0048463384932811975
0.2024228814117207,-0.007007770426516717
0.2035591970271476,-0.006434746495018599
0.3009619739464205,0.02959535286498236
-0.3249952529511792,-0.0023203074633499987
-0.03632046736942891,-0.06671330558298139
-0.03564794471479979,-0.06697841866314741
-0.0342866753026389,-0.06751793078283924
-0.0323207465726126,-0.06826363582124505
0.01585372734771429,-0.07378966843096649
-0.01055520188177529,-0.07530357912588412
-0.011119962497007484,-0.07514261000236143
0.029567071808896755,-0.06925130988145958
0.02954609918149313,-0.06926501461967505
0.016120384064687597,-0.07382083007702184
0.017719785272649672,-0.07342452528469015
0.019320978053494312,-0.07297536462386843
0.06702074487066276,-0.0556667354521157
0.06862216177032893,-0.05501324378565502
0.1057540550601404,-0.041568537553958486
0.1037036218144779,-0.04230478203964239
0.09209650624116004,-0.04647099972017013
0.09401205172790733,-0.045769748725316035
0.09008978410495705,-0.04714737128678972
0.08421147693866557,-0.049227844102898856
0.0821761666093972,-0.049997933192703
0.07638427295687425,-0.052117361661225395
0.07836778956011574,-0.05140372341988033
0.11671240250118045,-0.03763531659992034
0.11553430452500922,-0.0380544288902049
0.11361417481208873,-0.038751598056617605
0.10781289968322201,-0.04082044760557623
0.10966217971129438,-0.04015193926390673
0.12140677067877452,-0.035957859194153535
0.12345778935761142,-0.03522870073441699
0.11940649557112196,-0.036679609600935026
0.14096796500812767,-0.029042325033158345
0.142962141188384,-0.02833380638503578
0.15089548083288332,-0.025513587612798906
0.15275591576796194,-0.024856970736294136
0.14677923433983817,-0.026975507212070312
0.1488369683008221,-0.026243743106857814
0.14501053916146994,-0.027604512743491173
0.19008594073641907,-0.011958283166145358
0.192040967496155,-0.011252641844697035
0.18829184507507996,-0.012563140219338917
0.19403886275324123,-0.010374078345842981
0.19589461757896268,-0.00968592050969377
0.18620657390617473,-0.013454133330484279
0.18413391751534877,-0.013962478409415318
0.17833117908599644,-0.016045198929876672
0.1803678291693134,-0.01564363376354109
0.20166981221714841,-0.007321286347092549
0.19976445779819194,-0.008093136431643548
0.3018257675823267,0.029865860386269906
-0.32740704612029037,-0.0025284485745422206
-0.3254537589983848,-0.002363174334409669
-0.022392157079425466,-0.07181777713274339
-0.022555483054726704,-0.07174914292781732
-0.02649595898261231,-0.07028286538555292
-0.02776060571131311,-0.06985789002004424
-0.024490629739823296,-0.0709890151631285
-0.030388127085637845,-0.06896079170754134
-0.014567001757045329,-0.074200327721429
-0.012570827579379613,-0.07470338432209367
0.0453380356898552,-0.0639665044884248
0.043510527108338276,-0.06466631608224715
0.041435794904413056,-0.06539931775480756
0.03939062995518187,-0.06612656076245838
0.029847148678342122,-0.06915577395772575
0.02775319294201598,-0.07020692543077735
0.026199165293686988,-0.07095338601940449
0.021992951652450868,-0.07238484000917728
0.02317326721728457,-0.07205138190485152
0.01981929755675958,-0.07285491485933515
0.07446067871602285,-0.052823115597194624
0.07251387574540108,-0.05355142034307177
0.07060633369486602,-0.05426615020881588
0.06669665563609176,-0.05580023914666266
0.06488235696001798,-0.056546079092422055
0.060803189079826285,-0.05811679141001585
0.06283533193425894,-0.05734581323646845
0.057010865502069616,-0.05957466235348506
0.05904404035541366,-0.05877507356460805
0.05505632503956812,-0.06036004107150229
0.05312701189004859,-0.06105814767743436
0.051183710224236484,-0.061796101449527685
0.04928955890074629,-0.06253913020061311
0.047287740736221245,-0.06324619739102116
0.10193209031206432,-0.04292743712494
0.0998823663962346,-0.043667249885533284
0.0979000455389386,-0.04439228246882815
0.09596699128321817,-0.04506386708265364
0.08042130573112112,-0.05066727627665876
0.1252277453957548,-0.03460244136186972
0.12728378938501972,-0.03387383559188439
0.1390436296337726,-0.029721780059575303
0.1370839799512963,-0.030414681358285043
0.1351567151263796,-0.03110071383725318
0.1312046515834148,-0.032492339909027924
0.13316543549643028,-0.031802564365074844
0.12934545563581223,-0.033142973125400266
0.11749249977781877,-0.03735751942001338
0.11162111690795215,-0.03945707447020744
0.16235932955928933,-0.021545475920855556
0.16061027379459053,-0.022128795598427776
0.16254294762440874,-0.021480378947885473
0.16454650231563514,-0.02078964700005047
0.1586433534527821,-0.022801660143287217
0.1567073590356141,-0.023472137459162982
0.1665978740934389,-0.020075636637480437
0.15471684450865905,-0.024167594313891472
0.19782749594359103,-0.008919241815866232
0.176406129959098,-0.016912589287776492
0.17445876781253866,-0.017639353035775088
0.17250478875838346,-0.018047524097662138
0.17045591251130904,-0.018794889071071942
0.16836521952975192,-0.019443631292929545
0.18230348797462634,-0.014884617511751474
0.30277928392859116,0.030121965172680953
