"Plane Section: Position[X] (m)","Plane Section: Position[Y] (m)"
3.5,0.001868406692602014
3.2700000000000005,0.0018813902431575528
3.0399999999999996,0.0019548144883741493
2.8100000000000005,0.002068940199059654
2.58,0.0022270959130057085
2.3499999999999996,0.002471782314332751
2.1200000000000006,0.0028067997384521775
1.8900000000000003,0.0032603802202200898
1.6600000000000006,0.003995246864907836
1.6592912064603564,0.003999999999999887
1.4300000000000002,0.0054685766882091365
1.2000000000000006,0.007318178195500849
1.1760000000000002,0.008076585328087511
1.1520000000000006,0.00826073958903817
1.1280000000000001,0.008947839069431043
1.1040000000000003,0.009484012515811071
1.0800000000000005,0.009917681134291145
1.056000000000001,0.010387137711460957
1.0320000000000005,0.010775985451515042
1.0080000000000005,0.0111928629439716
0.9840000000000005,0.011720935650125351
0.9744824747975857,0.012000000000000042
0.9600000000000004,0.012424685838264365
0.9360000000000005,0.013151044348182457
0.9120000000000005,0.013927531298892949
0.8880000000000005,0.014799092391186834
0.8640000000000005,0.015766856202757546
0.8400000000000003,0.01683178871165452
0.8160000000000001,0.01797858134081389
0.7920000000000003,0.019257981304778498
0.7803113313600922,0.019999999999999477
0.7680000000000005,0.020788826652352023
0.7440000000000007,0.022431758213847006
0.7200000000000006,0.024277883659492565
0.6960000000000006,0.026256538102665664
0.6801811987621998,0.027999999999998835
0.6720000000000006,0.028948005439844292
0.6480000000000008,0.031970118068001076
0.6240000000000008,0.03576244034247352
0.6230079827715347,0.035999999999998256
0.6000000000000009,0.040951767470636266
0.5894655161235955,0.04399999999999756
0.5760000000000007,0.048187971502446865
0.5652757499824685,0.05199999999999703
0.5520000000000004,0.05697990792776233
0.5437902686766386,0.05999999999999603
0.5280000000000005,0.06686262718973524
0.5252045354762995,0.06799999999999562
0.5118105794222265,0.07599999999999486
0.5040000000000002,0.08228693304897614
0.5017539583182035,0.08399999999999415
0.49145600924164545,0.09199999999999306
0.48418697921976156,0.0999999999999925
0.48678922686614884,0.12166666666665965
0.4852711973532381,0.14333333333332593
0.4753628955731326,0.14333333333332587
0.4559999999999987,0.13165894013171997
0.4799999999999982,0.1461226847517148
-0.6233701415274724,0.03599999999999695
-0.6240000000000001,0.03585293798489134
-0.5896987569568537,0.043999999999996264
-0.5999999999999999,0.04098191998580839
-0.5653591597584946,0.05199999999999552
-0.5759999999999998,0.04824885520650246
-0.5447649496562768,0.059999999999994655
-0.5519999999999998,0.05722216591071
-0.525969645229259,0.06799999999999398
-0.5279999999999998,0.06721211563999882
-0.648,0.032002930746589976
-0.5102200627768746,0.07599999999999321
-0.4988534526497507,0.08399999999999244
-0.5040000000000002,0.08033629830790223
-0.68034430275925,0.02799999999999779
-0.696,0.026334783381641316
-0.6719999999999999,0.028922813803688732
-0.4888511004744869,0.09199999999999166
-0.44178307084432206,0.12166666666665732
-0.43200000000000094,0.10828044947551332
-0.7200000000000001,0.024286748825055354
-0.4817309534306168,0.09999999999999096
-0.45600000000000396,0.13434271477742793
-0.744,0.02244879331736637
-0.4852948082261745,0.12166666666665758
-0.47923207489287284,0.14333333333332482
-0.7809766699818126,0.019999999999998574
-0.7919999999999999,0.019296548608003637
-0.768,0.020831115805459162
-0.4807187162827727,0.14333333333332482
-0.4800000000000051,0.14369868420961207
-0.816,0.018010893369068276
-0.8400000000000002,0.016848805669537458
-0.8640000000000001,0.015756999434695697
-0.8880000000000002,0.014826749805051073
-0.9120000000000001,0.013922698243097104
-0.9360000000000002,0.01312707795454036
-0.9724762766795878,0.011999999999999587
-0.9840000000000002,0.011633515873121707
-0.9600000000000002,0.012399477425708934
-1.008,0.01107530020473831
-1.032,0.010615578974810566
-1.0560000000000003,0.010237083290225584
-1.0800000000000003,0.009858065978598483
-1.1040000000000003,0.009463822357584107
-1.1280000000000001,0.009076301426727686
-1.1520000000000001,0.008602803418093496
-1.1760000000000002,0.008407855463895747
-1.2000000000000002,0.007404499439764543
-1.6597200429931482,0.004000000000000073
-1.6600000000000001,0.003998162781758531
-1.43,0.005438758566296419
-1.89,0.003258824227095298
-2.12,0.00280914810092464
-2.35,0.002466145900789256
-2.58,0.0022300751195114903
-2.81,0.00206341620183902
-3.04,0.001947932244107838
-3.27,0.0018837159738353344
-3.5,0.0018692619204332553
-0.3560751252084151,-0.03349168507816376
-0.3584849944754178,-0.03151076123022348
-0.3545812221652826,-0.03508998872709446
-0.36238848625495423,-0.027526437263759487
-0.36040497440044755,-0.029582435707172484
-0.36417290940889724,-0.025673575463529164
-0.3524624182531098,-0.037400437825877
-0.36629164765429034,-0.02306503217343218
-0.36734843339598305,-0.021765125466414494
-0.3507076228002271,-0.0393547784956418
-0.350677943123209,-0.03938151338933123
-0.3487260195886235,-0.04111714974130831
-0.34853201441696635,-0.04130941057968792
-0.3465597390459708,-0.043263901854995256
-0.34677423360346316,-0.04305141251678979
-0.36970577478410177,-0.017857242063363074
-0.34482240325626795,-0.04492161487323816
-0.34451581693291644,-0.04521844274588498
-0.34245486667899083,-0.047172995428819905
-0.34287055987066895,-0.04677298930534707
-0.370193858031735,-0.01723031660718493
-0.3725808774525978,-0.013949000108969687
-0.3409187079961269,-0.0486121053877657
-0.34037565099418454,-0.04912756076062039
-0.33830275056405623,-0.0510821217190914
-0.3389668571775234,-0.0504527462809356
-0.37409668778053146,-0.01228999595411591
-0.33701499822372305,-0.052281639657476425
-0.3361922109229538,-0.053036708742836364
-0.3340388190253316,-0.054991325441912105
-0.33506311640401126,-0.0540775137957757
-0.37614407291753194,-0.010040281648125567
-0.333111193182096,-0.055813601679779
-0.33165379797333666,-0.05694610254490731
-0.3779998351823457,-0.007808377920129418
-0.3793781500396085,-0.006131791102769552
-0.3311591297718962,-0.05734725253617612
-0.32920694097289394,-0.05869983733032041
-0.32895853013399384,-0.058901094494802034
-0.3264604021379241,-0.06085594992472192
-0.32725484803225285,-0.060190845133819365
-0.3815946458885153,-0.00222400523571526
-0.32106671723894464,-0.06476593600533974
-0.3213984663874055,-0.06451538845876983
-0.3253028507719464,-0.061820018845758995
-0.3239676523670363,-0.06281080163019667
-0.32335073739897946,-0.06328152160535626
-0.3819018830472215,-0.0017389882538523939
-0.3842987592441257,0.0016841183080276813
-0.30106388609242035,-0.07650814381794663
-0.29932018661993587,-0.0771153790488433
-0.3194463154869973,-0.06592270022149029
-0.3183492877241597,-0.06672094330225475
-0.31529254292109543,-0.06867618557611269
-0.3155418521356738,-0.068504038911527
-0.38580460503297215,0.003356946160637631
-0.38758462445227415,0.005592644716786024
-0.2936981184240552,-0.07917734990864815
-0.29548585479371037,-0.07853347748042389
-0.2915891288128677,-0.07994029126731791
-0.289582080066253,-0.08066855210746103
-0.2876827122659571,-0.08136056430515397
-0.28573205584056494,-0.08207820278547716
-0.2837940304462942,-0.08279357207909252
-0.2818292152700599,-0.08350931081963417
-0.279874784374723,-0.08421661143615375
-0.3027164611166208,-0.07563425354802453
-0.30492523694641727,-0.07469934413614503
-0.30489847654921676,-0.07472620747226522
-0.2973974886336843,-0.07783568461308558
-0.3174941756151793,-0.0673459376886713
-0.3135895995756246,-0.06976455043257324
-0.3122073500987861,-0.07063144755029177
-0.3893387595373209,0.009500110397540517
-0.25740070256588976,-0.09232547819815785
-0.25649477735932036,-0.092642554835906
-0.278000484155527,-0.08489042074861186
-0.3049673981585282,-0.07467567159552092
-0.30578008933887213,-0.07408458318671234
-0.30548454032842465,-0.07454235405414697
-0.3116373327995002,-0.0710045334324643
-0.38970617976461575,0.010109557574392018
-0.25445781783456906,-0.09338584493300947
-0.2525053023997641,-0.09409839691603089
-0.2507080133954468,-0.0947279159868767
-0.2603274703238214,-0.09128137892034228
-0.2583685939316398,-0.09197649190225436
-0.2759615402504962,-0.08561919820110604
-0.27400623523041334,-0.08632410234465052
-0.27221181283486984,-0.08697230799304509
-0.2701024229446616,-0.08775254714187028
-0.26810321901066186,-0.08849530671040116
-0.2642412202716222,-0.08988017890539642
-0.2622989870647128,-0.09057568209500436
-0.3096849479406436,-0.07207400063231964
-0.3088061517650713,-0.07258692835930719
-0.307732599889452,-0.07319661944713894
-0.3945165170430605,0.017316197884373614
-0.40182436982275216,0.03294626234218883
-0.4053100056963045,0.040691098471768834
-0.40863448529438806,0.04857598211533049
-0.40534822467124854,0.04076120449613947
-0.2368654324154052,-0.099744676379069
-0.2349969143734726,-0.10041615007272585
-0.24858706679365644,-0.09548729919085594
-0.24657666167331924,-0.09619138874470906
-0.23881837920065274,-0.09903330697292999
-0.2662000714374867,-0.0891849967637924
-0.3975101618600024,0.022412429093201413
-0.3991456557060643,0.0251319054508974
-0.4113467743904501,0.05639036225740364
-0.4325377358443606,0.11109255017840199
-0.4365077732025281,0.11612755438317726
-0.4446443886336666,0.12672593782057642
-0.4521197103535863,0.13499619716327702
-0.46067574366194175,0.14236204333156566
-0.46773524292701124,0.14867291822775014
-0.21535036117679832,-0.10748020953497545
-0.21348730045768977,-0.10815748465457779
-0.22037819888780566,-0.1056891146106693
-0.2192870831895144,-0.10608002659241762
-0.21730806018912502,-0.10678186868538814
-0.23295500728974486,-0.10115499162198041
-0.23100163885735803,-0.10186520505357094
-0.22921566472086063,-0.10251480158989178
-0.22709514353663848,-0.10328629412637061
-0.22509487411507156,-0.10401019854786281
-0.2446683147957472,-0.09687478574219291
-0.24271612060578948,-0.09758821843996048
-0.24078426853307827,-0.09830383071201136
-0.4131091522237714,0.05997670737848068
-0.41559129910076775,0.06420580347753461
-0.420343147441057,0.07983409789411658
-0.4209066668557952,0.08161883310205564
-0.4250156568321243,0.09546233736823204
-0.4833575311947429,0.15259416900837913
-0.20950207183302805,-0.10964324407664693
-0.2077718920669052,-0.11028732394644322
-0.20359705678728288,-0.11178504973016606
-0.20559716974327163,-0.11106870110141834
-0.21144871478935845,-0.1089145922910161
-0.2231838857378977,-0.1046943265389203
-0.2212256953766047,-0.10539132032159632
-0.20168642872691528,-0.11247815030834327
-0.19973344266939186,-0.11318941204687491
-0.1978026216603822,-0.11389108393923489
-0.20752205905239726,-0.11037845170622242
-0.2077246796770214,-0.11030530469502361
-0.18413777720224944,-0.11895688122680793
-0.18213830154759086,-0.11966698013568917
-0.18999528908642943,-0.11681913091237922
-0.18804078913425276,-0.1175262422048413
-0.18626188204816238,-0.11817295864972696
-0.19582938042747955,-0.11461717157212162
-0.1941955177704722,-0.11523936992808344
-0.19388927430641723,-0.11536374454013472
-0.19204184812335112,-0.11607467639143387
-0.1450685697246595,-0.13300254846190793
-0.14491956974176137,-0.13305536795121004
-0.14315304069064988,-0.1336903782230724
-0.1424825151632574,-0.13392761902953376
-0.14204690891222302,-0.1340822472949439
-0.14226065401231353,-0.13401873555300142
-0.14239875574552185,-0.13397637558970635
-0.17826947889770078,-0.12106505982973455
-0.17634792368074143,-0.12178371776534336
-0.17438446350761105,-0.12254503760603708
-0.17244136166635965,-0.12328339760162385
-0.17057763744028961,-0.12394039298538179
-0.18022182007962934,-0.12035203012052029
-0.14698265167832347,-0.1323381885721177
-0.14211948455103957,-0.13410302455385653
-0.14317362182845172,-0.13374680282440166
-0.1480002712535654,-0.1319956387818311
-0.15092362932734418,-0.13101163516815778
-0.14905208845618814,-0.1316378968786236
-0.16852286565893992,-0.12467158596846022
-0.1664653844167674,-0.1254118921375196
-0.16265195959252926,-0.12677261521332117
-0.16066306629908828,-0.12750371702378635
-0.11961905137498902,-0.14223609905822504
-0.11761855693789927,-0.1429572754635121
-0.1433675970196796,-0.13368542836211128
-0.1519881501361542,-0.13063470455312873
-0.1587501619353054,-0.12820658325288004
-0.15679691930557155,-0.12891714158107886
-0.15487148648735807,-0.12961672910049118
-0.1646956158175368,-0.12603730440212674
-0.12061213143339367,-0.14188152053617248
-0.11615507431767262,-0.14350725295176064
-0.11917292925777695,-0.1424481043604001
-0.11762891868969705,-0.14298568291697053
-0.12827355770386967,-0.13928471298661846
-0.12759312935432304,-0.13951791018425796
-0.14372825647227042,-0.1336475393743925
-0.14375944267150587,-0.13359898882652071
-0.14322222930984665,-0.1338800635695261
-0.1411998505745016,-0.13468076361668485
-0.15288847989785773,-0.1303329008060068
-0.1216724615243783,-0.14151341911971882
-0.12335140678875692,-0.14092398515043686
-0.12344457409064527,-0.14089299120457424
-0.12531193873036747,-0.14027131411664154
-0.11963737842742662,-0.1422863439298828
-0.12551467709830733,-0.1402028404487994
-0.1398468180485525,-0.13520380703165877
-0.12945795774535707,-0.13888260087190188
-0.12257910670114985,-0.14126812737278116
-0.12169202927435471,-0.1415670654487982
-0.1248503810618657,-0.1405333326669665
-0.12347974387975441,-0.14098941159437742
-0.13922455371398446,-0.13544111889121904
-0.13350097189311705,-0.13751848407781178
-0.13342900639188462,-0.13754281257044304
-0.13142865451359637,-0.13821989426191192
-0.10796112473569382,-0.14666813538372042
-0.10610247878252854,-0.14731098596793601
-0.10872791444937677,-0.1464140777215177
-0.12508011614612216,-0.14059003057124844
-0.13731652241585274,-0.13616536705374996
-0.1353617108370227,-0.13687162400034625
-0.10404730759715217,-0.14806915119061292
-0.10201454148276057,-0.14885387580387915
-0.11162758836278958,-0.145496902958376
-0.10993808864098066,-0.14602261055992283
-0.1235627351218608,-0.1412169377785121
-0.11976456750153035,-0.14263504150277576
-0.11776951360636279,-0.1433711335270256
-0.09822478195293066,-0.15030281868221473
-0.09623976923802752,-0.1510204537706224
-0.0924818632058544,-0.1523399008478719
-0.09234735717909737,-0.15238597644344698
-0.10161294744857534,-0.14900929519096878
-0.10026221983213604,-0.1495292959351023
-0.006361761729877841,-0.18348746892506174
-0.00448408976518091,-0.18417006485118725
-8.05212729616291E-4,-0.1855090526205963
-0.0019684066059809675,-0.18508508128978243
2.733567247848814E-4,-0.1859027749427212
-0.007490157873648654,-0.18307647859579135
-0.11587404431531834,-0.1440999192781286
-0.11391366477127271,-0.1447909112661095
-0.11195956777540572,-0.1453949631692552
-0.12181513520783979,-0.14190456881156224
-0.09177566175731619,-0.15259749112706772
-0.09430758877587594,-0.15169457884788873
-0.07545360749870596,-0.1585510367084217
-0.07670914487977808,-0.1580368005638702
0.011807175803824798,-0.18209589111426966
0.012997961873074745,-0.18166609554165994
0.007933590522042518,-0.18349569169714114
0.009484344623237943,-0.1829339741117445
0.006054710172334511,-0.18417707166940914
-0.0025590105066434646,-0.1848700851671729
7.830448629097197E-4,-0.1860903077132339
-0.014262860074365707,-0.18061021315254192
-0.012205680825740204,-0.18135754542338944
-0.010233578230588722,-0.1820765166357715
-0.008303867578334121,-0.1827806698461051
0.017900559948543976,-0.17989786766343607
0.017607282363457627,-0.18000324951589464
0.10766255520438611,-0.14729490098576148
0.10950981805823057,-0.14662083633659548
0.1072241903171256,-0.14745675869143732
-0.09072909729568245,-0.15311972525622908
-0.0780390447813802,-0.1576079863750319
-0.07476649584137732,-0.15886251656070846
-0.07478766218438711,-0.1589205455422575
-0.07488963659979997,-0.15889724257990517
-0.015114279982900476,-0.18030376725645955
-0.016973770706535326,-0.179637843577083
-0.01603057215034174,-0.1799739924537188
0.013781509204640194,-0.18138408718170074
0.015839834482141327,-0.18064013512088856
0.009875573551695296,-0.18279289332410975
0.004128776395925396,-0.18487678330023094
0.0029328740031306496,-0.18531337776418622
0.0022203940685297345,-0.1855721406369887
0.01964869790905586,-0.1792735269319107
0.1114639280528715,-0.14591266760563065
0.11275581982304073,-0.14544774724783183
0.11345554460192016,-0.1452032084924019
0.11412027444365533,-0.14497068822824594
0.10674623248029959,-0.14764883843229987
-0.09049415972152637,-0.15325813891367118
-0.08032557588283759,-0.15691445831840656
-0.07878249411113972,-0.15735467843819667
-0.08059993678651192,-0.15685704900678377
-0.0826549107115347,-0.15627556482726673
-0.07477808134920604,-0.15889427902528336
-0.07479753529785284,-0.15894761336020174
-0.018208360293940462,-0.17920602263443286
-0.01807515664985107,-0.17925290867413685
0.002373680714123429,-0.18551734785488616
0.020286903531133674,-0.1790496726857177
0.11390470244702004,-0.14507671908315795
0.11412488695449147,-0.14499322767366837
0.11400333135457633,-0.14503594961063265
0.11375088617090523,-0.1451209546567239
0.10751017063049417,-0.14739912472911998
-0.08996736969476221,-0.15360831123414476
-0.08862160799569865,-0.15430259345243214
-0.08667853184493149,-0.15504102388021887
-0.08482327834559954,-0.1556837116649161
-0.08270048239179022,-0.15626594238975722
-0.072916010548397,-0.15976867656647253
-0.07096108496166566,-0.16047462095259687
-0.06905910159560795,-0.16120449544162457
-0.06707414547305522,-0.16194932368080373
-0.06645851714838448,-0.16218327508259361
-0.06513125081343629,-0.16268825167902964
-0.06333549789401494,-0.16348454374962978
-0.01909207888287738,-0.17891143421749306
0.021087384892662733,-0.17878668699279723
0.06240049405187607,-0.16382394341276957
0.06260146561234578,-0.16374420003302365
0.06265073869372342,-0.16372581211787451
0.10358254381969632,-0.14885982380185653
0.10442939191488834,-0.14855962813667212
0.099754768247364,-0.15020435827105902
0.10159080992871622,-0.1495489547884085
0.09816685611646077,-0.15079248752751012
0.11346925720114744,-0.14524096488050736
0.10768082052479457,-0.14734519287535114
0.1095370019526054,-0.14669568470408492
-0.0615710697952135,-0.16428210776160856
-0.01972944709037168,-0.1787205792880347
-0.020530660620912335,-0.1784907750627287
-0.02018030366928305,-0.17859355053390397
0.021575134409947502,-0.17865115022822653
0.02206739679703085,-0.17853477801367634
0.02175217746035405,-0.178609984554599
0.06657421607191419,-0.1623514844811887
0.067600467342429,-0.1619977956126947
0.06336036313374441,-0.16347533221822066
0.06472460437452908,-0.1630000253464853
0.06265568608301454,-0.16373943430190077
0.10180740792725763,-0.1494725704590455
0.10564204478784164,-0.14814854014056322
0.09913467185798731,-0.15048259734015496
0.09293566089434592,-0.15279640319888843
0.09200640472926228,-0.15311136936001823
0.09001816326892031,-0.15383866636502366
0.08978539030853941,-0.153940537969773
0.08700725793687306,-0.15504313331011127
0.08624435625382482,-0.15528730022268286
0.08297976287040215,-0.15641224786818397
0.08211519841408221,-0.15671857669913442
0.11148955903026313,-0.14598324015820324
0.10769876406780898,-0.14743464800778103
0.2620837871926584,-0.09180601942874955
0.26012257878354933,-0.09249464332452628
0.25825214023819276,-0.0931699465346545
0.23859811281147947,-0.1002039455587532
0.24054566773174318,-0.09947772802990854
0.23673186500131443,-0.10088163729724675
0.36197504585389023,-0.030082686178204705
0.36026495724081165,-0.03182934410333941
0.3581890192243884,-0.03398631527927389
0.3539137465054529,-0.03788960557587074
0.35635595572186196,-0.03580128583068331
0.3519502502615106,-0.03984137131676521
0.35244724465264443,-0.039353807525568045
0.3641740149424436,-0.027776272503814085
0.36570180435892147,-0.026179016033758967
-0.061328201576572386,-0.16439294528798687
-0.021146367126320145,-0.17835985647038782
0.022622936118236493,-0.17842662983386742
0.0685447869899985,-0.16168863939776462
0.06380128023977755,-0.163377607900824
0.10410813309951268,-0.14883233161765752
0.10362892971302733,-0.1489875431176556
0.10044899920735093,-0.1500676624843598
