"Plane Section: Position[X] (m)","Plane Section: Position[Y] (m)"
3.5,6.893103347369632E-4
3.2700000000000005,6.932498401852231E-4
3.04,7.188552017319349E-4
2.8100000000000005,7.594860677288709E-4
2.58,8.236112102170767E-4
2.35,9.161990655286573E-4
2.1200000000000006,0.0010458542150836975
1.8900000000000001,0.0012443435232150977
1.6600000000000006,0.0015098871220117103
1.4300000000000002,0.0019327884014723152
1.2000000000000004,0.002385091772992385
1.1760000000000002,0.002614498549849033
1.1520000000000001,0.002692673959588982
1.1279999999999997,0.0027651089192015288
1.104,0.002875628092430784
1.08,0.003003310109983494
1.056,0.0031472289487023044
1.032,0.0033108750131351766
1.008,0.0034826067251036742
0.984,0.0036764212599397716
0.96,0.003899459892907447
0.950145480334158,0.004000000000000034
0.9359999999999997,0.0041443280682337165
0.912,0.004397278475432897
0.8879999999999998,0.004654695128170865
0.8640000000000001,0.004943421758533304
0.84,0.00525210567602368
0.816,0.005583306052181214
0.7920000000000003,0.00595503610063535
0.7680000000000005,0.0063565077827178644
0.7440000000000004,0.006814490707696515
0.7200000000000003,0.007360150596415545
0.6960000000000004,0.007880058240083653
0.6720000000000004,0.008561301719618863
0.6479999999999999,0.009302813944242077
0.6240000000000001,0.010269032207526336
0.6000000000000002,0.011420832463398754
0.5922321891534442,0.012000000000000077
0.5760000000000001,0.013235060579928331
0.5520000000000003,0.015319810311579217
0.5280000000000002,0.01893065480737456
0.5241361683758762,0.01999999999999924
0.5040000000000004,0.025019496782894533
0.4800000000000004,0.027465618875033786
0.4560000000000003,0.023972879716141864
-0.47999999999999987,0.027378711921539366
-0.4559999999999998,0.02497760748471503
-0.5243425801656532,0.01999999999999803
-0.528,0.019119908504287634
-0.504,0.02442668052204168
-0.552,0.015559515158862289
-0.5925268195811031,0.011999999999998392
-0.6000000000000003,0.011448635240994142
-0.5760000000000003,0.01321758011240033
-0.6240000000000002,0.010280718723636407
-0.6480000000000001,0.0093399383171387
-0.6720000000000003,0.008563282422745545
-0.6960000000000003,0.007912536736832163
-0.7200000000000002,0.007334295527137614
-0.7440000000000002,0.006815290799624283
-0.768,0.006355970386326456
-0.792,0.005947573466298923
-0.8160000000000002,0.005570907055744897
-0.8400000000000001,0.005247958636815613
-0.8640000000000001,0.0049390616575282174
-0.888,0.004655843152647228
-0.9120000000000001,0.004394480654003651
-0.9504964515001628,0.003999999999999799
-0.96,0.0039049272613668764
-0.9360000000000002,0.0041449533541868915
-0.984,0.003684640581192026
-1.008,0.0034915296216473154
-1.032,0.00332247112784974
-1.056,0.003163203793722716
-1.08,0.0030291048723204038
-1.104,0.002906001337018232
-1.1280000000000001,0.002790529820762418
-1.1520000000000001,0.0026993412446106443
-1.1760000000000002,0.00260284077864467
-1.2000000000000002,0.002369436209115056
-1.4300000000000002,0.0019375592410606234
-1.66,0.001511161450429743
-1.8900000000000001,0.0012445828866671066
-2.12,0.0010652786366342707
-2.3499999999999996,9.12666487283398E-4
-2.58,8.212952769174391E-4
-2.8100000000000005,7.672960591979811E-4
-3.04,7.166385348889102E-4
-3.2699999999999996,6.90506883691416E-4
-3.5,6.887409621289787E-4
-0.35074149658794995,0.031588967905454624
-0.3482735257809109,0.0290509184602123
-0.3448317741975728,0.02514162146414272
-0.3468395443123805,0.026730283213454463
-0.3546442017630047,0.03559678369294145
-0.3518980417979559,0.0329603771771255
-0.355849194022471,0.036870124921227106
-0.3443679036379711,0.023188085239235753
-0.35854691884043066,0.039591148345019415
-0.3443218044887558,0.021234918683341934
-0.35989748803918525,0.040779958622175747
-0.3434565252159817,0.019281027268091847
-0.34202017565624754,0.017326630535818073
-0.3429404778405757,0.01861028583262723
-0.36244995197420843,0.04322833049045842
-0.3642254911071414,0.04469003982634776
-0.3409895802653938,0.016092158102635933
-0.3404340429922336,0.015372101266534863
-0.3386608599983557,0.013417406483986068
-0.3390384329558527,0.013856260870244073
-0.36635318104755576,0.046644076865335365
-0.36887523649017756,0.04860040572728901
-0.3370871469890172,0.011777063414038936
-0.3368097965895446,0.01146264278818733
-0.3348471384946289,0.009507780346774472
-0.33513575201697865,0.009821055234275525
-0.3702566269717037,0.04981475520116199
-0.37396577828125627,0.05251116167114793
-0.33277689560071616,0.007552822707917883
-0.3331842522757772,0.007983449052204945
-0.4065195709304446,0.040821212618531603
-0.4069651593200411,0.042774732666306305
-0.4073016160243194,0.04472815614786324
-0.3741603464109639,0.05267632787902341
-0.2992480412014964,-0.014271880966340997
-0.3009357789526833,-0.013664762243166553
-0.33123268927371113,0.0062173354190097705
-0.3306296366678377,0.005597796920687836
-0.40624406043074407,0.03886784306581536
-0.40736963108298124,0.04572983174336297
-0.407442736519985,0.046681406784289455
-0.3780641512364869,0.055441403586858354
-0.3797756518384482,0.05642255412262087
-0.294094634166083,-0.016198066233324905
-0.2954499617066448,-0.015691079384199717
-0.30263166060414565,-0.012980488355183275
-0.2973464644688109,-0.014980827161723793
-0.32928106749262953,0.0045176493122509945
-0.32832637150534916,0.003642633089845859
-0.32592194844626254,0.001687379748469349
-0.3273293813142727,0.0028907400282145524
-0.4061410732083826,0.03691462617197407
-0.4079006630832064,0.04863493774960677
-0.3819682045717296,0.057925632774979544
-0.3858726622256947,0.05995293214866354
-0.38671207518006534,0.06033494341243367
-0.29367201528449843,-0.01635447094566158
-0.2915690554312022,-0.01713239221552121
-0.2895663402062622,-0.01787235126473221
-0.2857256210751036,-0.019307476391722977
-0.287671871799419,-0.018577771450807776
-0.28379351434111066,-0.020039057935517697
-0.2831075648284402,-0.020301715714241688
-0.30281383663177974,-0.012933333645465749
-0.32076578273476364,-0.002223434263340501
-0.32147404269069146,-0.0016734534063354172
-0.32537769784762616,0.0012607661723084956
-0.32344165482615705,-2.679407276930997E-4
-0.3234259348126192,-2.7928564508084984E-4
-0.4062495999225121,0.034961596438259815
-0.40931880501531986,0.05019588759898247
-0.41070687468687195,0.05254367238203443
-0.38977710466297516,0.061997428252026796
-0.2818370579857998,-0.020777699877994483
-0.2798901246088895,-0.021505546237234073
-0.3031712744481612,-0.012837580816127965
-0.3195222133156893,-0.0031385328910526955
-0.31812965950407845,-0.004178892626821584
-0.31532535095593384,-0.006134499810715741
-0.3156184245270658,-0.005921732255763144
-0.4066805189086844,0.0330088519764432
-0.4132207674371544,0.05504310575861435
-0.4148342230604976,0.056453576034983514
-0.3936819536926319,0.06358242501985509
-0.3955667482342209,0.06424903008387417
-0.2780244339139498,-0.022202950354406198
-0.30379965750879206,-0.012640648386167047
-0.3050302198051474,-0.012161464647977236
-0.3049628706913294,-0.012188859164248132
-0.3175703915884911,-0.004612255340645908
-0.31366648092966254,-0.0072577264010745286
-0.3124110197795235,-0.008090204349160676
-0.4076694836543124,0.031056601306742926
-0.40738219745682164,0.03152828584477896
-0.4171238162038964,0.05866262072198057
-0.3975868449501095,0.06511969915753225
-0.275994955540885,-0.022957670704235985
-0.2722597928548134,-0.024350694776445185
-0.27404670150827093,-0.023681898557491955
-0.27015850901938676,-0.02515313837218706
-0.26906982830455534,-0.025565610153777944
-0.305065444580182,-0.012148288094455041
-0.30585798719772817,-0.01178875782267419
-0.30571979665082344,-0.012002376671238494
-0.3117145137990299,-0.008567125114426016
-0.4093370162598385,0.029614944508572695
-0.4195564246074499,0.06036400604944418
-0.4014919313791544,0.06643640547732767
-0.40539723508327485,0.06750756425322801
-0.4210270330364628,0.062092200691334185
-0.2584937935512156,-0.02956647970160858
-0.26043416012963655,-0.02882064076549782
-0.25664224186155354,-0.030293556174049593
-0.2681636135393674,-0.025907695786876746
-0.26432357308982873,-0.027352744958346775
-0.2623928199570019,-0.028079709691945585
-0.3097623478051722,-0.009651783955614043
-0.3090901290515147,-0.010046268635728411
-0.30781021785415225,-0.010777175624934061
-0.4103648478676382,0.02910586056097198
-0.40786946139538227,0.06816616778662363
-0.42445145206953044,0.06427458899057781
-0.2557789934102507,-0.030627158290772984
-0.26626946894504844,-0.02662205586093058
-0.41324504565580705,0.027605736723546003
-0.41129091400227924,0.028742514741693398
-0.41320781505603554,0.06968088729107105
-0.41711365118622695,0.07015033920133784
-0.4093023719073957,0.06876731793882705
-0.4210198028862454,0.07026315847645465
-0.42493057157360226,0.06515821495721606
-0.4277525949860598,0.06818376156771216
-0.25462016992156394,-0.031077637190148475
-0.2526817441482221,-0.0318287937989361
-0.25089577327006074,-0.03248933759168897
-0.41405144971375873,0.02715599692129121
-0.4249265774014023,0.0696721201249377
-0.24880032556773474,-0.03331859365738333
-0.24681694429726686,-0.03409674221774927
-0.41997267925666604,0.025208110613322718
-0.4191062663391839,0.02552248012554842
-0.4171525037615598,0.02624215703114942
-0.41519902699157446,0.026638836237797506
-0.23715545352984427,-0.03778630462305334
-0.23529505864771594,-0.03848004063525191
-0.24492713219771867,-0.034830930027747606
-0.24298779024468647,-0.035579576367058614
-0.24228754332537014,-0.03586730401625184
-0.2391026082304219,-0.037059064675492935
-0.4210599147836135,0.024931787728155252
-0.20577070878965348,-0.04879122108243601
-0.20375742732611024,-0.04947149597792043
-0.21386651506650228,-0.04624020167047655
-0.21379840007244452,-0.04625692822016802
-0.23325706444898378,-0.039229606475926604
-0.23130602982094328,-0.039946215688676165
-0.2295225629797334,-0.0406026831174129
-0.22740417640637475,-0.04138002550513935
-0.22540693888201355,-0.04211224023761316
-0.2410659774248058,-0.036322689836721066
-0.4269198031176261,0.02435424955150378
-0.4249665462025525,0.02450246567950467
-0.4230132175948222,0.02473170332912049
-0.1771718459661954,-0.05910585918150851
-0.17646633933840256,-0.05935518076766397
-0.17252868094881946,-0.06076961950160152
-0.17447965663047044,-0.06005284877976177
-0.17068163834620048,-0.061472333515669414
-0.18425930296341325,-0.05653685758343648
-0.1822701263348323,-0.05727518536106664
-0.19013636382680388,-0.05445267042314356
-0.18817568754281616,-0.05514286216072056
-0.18638864636507385,-0.05576729298752422
-0.20183848260432016,-0.05014181159276407
-0.19988174378292997,-0.0508427917074821
-0.19795628515353805,-0.05155915763519801
-0.19404783073903697,-0.053045200930113515
-0.19219079945023648,-0.05372979601689415
-0.20756186477597494,-0.0482250909183025
-0.20972404606360645,-0.047498473505207084
-0.20792522868580493,-0.04810182334298038
-0.21170109571985224,-0.046853143683213874
-0.21568316522645828,-0.04563912045035908
-0.2235006658090531,-0.04280929475466039
-0.2215482441159764,-0.043522103504483746
-0.21961591368779343,-0.04422803117873557
-0.21764196178141726,-0.04494377838431231
-0.4288728116218822,0.024486768161145502
-0.17058466849147547,-0.06150999872048342
-0.17840319720167575,-0.05867846028319894
-0.18036044467220433,-0.0579788738322151
-0.19599024612059007,-0.05230497557387011
-0.43668502079974203,0.024818889326775503
-0.4347318011130018,0.024925032863091497
-0.43277865934619386,0.02494311730218869
-0.43082569623315364,0.024759301057716936
-0.4425454220636482,0.02366167738438004
-0.4405917240361659,0.024308404716773698
-0.4386382211639684,0.02473458260908
-0.1510320143897381,-0.068555640582379
-0.150095787061664,-0.06898787982264112
-0.15886677081784695,-0.06577309471841465
-0.16021043990357187,-0.06529630829394326
-0.15690473823205942,-0.06645957028219966
-0.15496498897458894,-0.06711993328705312
-0.16864693930864585,-0.06225853419875134
-0.1665977727402235,-0.06302162748118346
-0.16078821183446537,-0.06509362092337033
-0.16278346781994496,-0.06437995531246002
-0.12697574794714656,-0.07719188696749549
-0.1255972479679444,-0.07767615870086048
-0.1409371619279417,-0.07219002268597086
-0.1392541401256478,-0.07276913660110566
-0.12913227001958505,-0.07649848522537456
-0.12766386294397697,-0.07695875640444497
-0.44377509423406497,0.023276046643471552
-0.14332632839958698,-0.07141229489717205
-0.14125566461050146,-0.07208066410949607
-0.1529704066969273,-0.06780439227866743
-0.14924068711715743,-0.0694017118738525
-0.1648294176914859,-0.06365092348274652
-0.12354600558593617,-0.07841802061622834
-0.13733779895101308,-0.07347060147445907
-0.1366034222507863,-0.07377171908771493
-0.12955913958268264,-0.07640684942989569
-0.44449914691403786,0.02298463687450703
-0.14396333149789775,-0.07122605830629208
-0.14612059066025193,-0.07064947480557904
-0.14515468415163016,-0.07094668051611988
-0.147930776728514,-0.06998880642122991
-0.12248728938860526,-0.07883005152752016
-0.13551908371528354,-0.074307977694226
-0.1300583424496482,-0.07630099883860353
-0.446318366089848,0.02132517131731173
-0.1472455977957243,-0.07030573935985274
-0.12180480075249275,-0.07912314738031372
-0.12114010661118639,-0.07941540618671758
-0.13544699711426858,-0.07435224439904328
-0.13439449012608656,-0.0749291806493036
-0.13129144084388017,-0.07606170873123111
-0.44840730012339836,0.02083550475339798
-0.44645382320726396,0.021232349097017017
-0.11321400698255552,-0.08244872038697935
-0.11204353073102127,-0.08287196579671699
-0.11021641308481912,-0.08354276013905175
-0.12009659442808437,-0.07993676429167822
-0.11798660721991168,-0.08091760895521766
-0.11983488673544551,-0.08007461497304331
-0.1336194472240907,-0.07531156714075676
-0.13162042860238005,-0.07599232967886341
-0.10811855222237439,-0.08434652366424827
-0.10627172889529378,-0.08502178603827007
-0.4503605600294498,0.020683908449880006
-0.11595519420940328,-0.08156914410221092
-0.11396950102529549,-0.08219079125144854
-0.11006123264403424,-0.08360702449968631
-0.11772478975739165,-0.0810131651651503
-0.11789438484463552,-0.08096017143729903
-0.09460539700286334,-0.08924035385811183
-0.0944354450366695,-0.08929192040675528
-0.09674010072082154,-0.08867200247743814
-0.09641611009950546,-0.08875062354207387
-0.09246520858832696,-0.08995591795052907
-0.10421202050492634,-0.08576751525207263
-0.10231635468930411,-0.08663682235720255
-0.0028957329925090856,-0.12230680454115007
-0.002659304458369417,-0.12239289645700571
-0.006462418563916748,-0.12101057169463751
-0.004584760438658918,-0.1216934843757084
-9.051241407125083E-4,-0.12303211456025176
6.631883111970779E-4,-0.12360571343702641
-0.008404753656559776,-0.12030430754190241
-0.008426954506494024,-0.12029628344677185
-0.45231373687653165,0.0206261789914666
-0.09119387090508867,-0.09048546753711782
-0.09823925611348822,-0.08844098737869255
-0.10223089432724777,-0.08669370705986904
-0.06512263311778936,-0.09991148040061382
-0.06330350110924995,-0.10064364101096507
0.004262405720164809,-0.1223143215412408
0.004030310675524515,-0.12239829356905754
0.005957585294143773,-0.12170232463217218
0.007568816783468945,-0.1211224166731873
0.0035885799799763645,-0.12255889904341331
6.838088092790138E-4,-0.1236133231062097
-0.010338179811506195,-0.11961031520930275
-0.010414052865524248,-0.11958338203569133
0.2968555352213467,-0.016220615617804145
0.29699207162832225,-0.01617085941673999
-0.45720736449248833,0.021334806551780813
-0.45817232343418174,0.021519807999317367
-0.456219512326106,0.021164207466743357
-0.4542666130227754,0.020908278405100733
-0.09058342400781715,-0.09074965036403279
-0.09853635460605135,-0.08840351078488787
-0.10111932930698957,-0.08738983946803003
-0.1005962908824974,-0.0876916479845442
-0.06903106360246992,-0.0985742857806564
-0.06706727766304509,-0.0991773627998373
-0.061235540326062377,-0.10138573331000125
0.007838410483484761,-0.12102621309712339
0.009529925645429324,-0.12042292315330003
0.00227477884201475,-0.12303793700889534
-0.011633466058502809,-0.11915683226411106
0.34977735768012064,0.02843324145344666
0.35238358330144925,0.03136817466009009
0.34611833401921976,0.024530227646344303
0.348473001207766,0.026474104933573973
0.2988973831721611,-0.015477557026263869
0.2952217765067031,-0.016855807850520467
-0.4601245818598671,0.022500007524182398
-0.08895063006433916,-0.09151494613043186
-0.08866432007787252,-0.09166636467077188
-0.0867508250394368,-0.09248582978112921
-0.08490978346341455,-0.09316747529937175
-0.08279862181411916,-0.09378168457375544
-0.08078710416120187,-0.09461681406364934
-0.0600565345649246,-0.10184974331701027
-0.07188376113403644,-0.09774388630387838
-0.07105431290854333,-0.09797694535053014
-0.0690967950636012,-0.09855464025439746
0.009784177262739035,-0.12033371219426364
0.011197224861076795,-0.11983623686098382
0.011722846871433755,-0.11965609791519487
0.01332289860784466,-0.11909242044687568
-0.01240238062128297,-0.11890395350508284
-0.012324162372389168,-0.11892936467562068
0.3532330719983983,0.03233643516078116
0.34514166049587713,0.022577966100648383
0.30080356907447725,-0.014782326661749182
0.2916369574842875,-0.018177201154266017
0.2931197729911828,-0.017636547260443815
0.35629325535132195,0.03523378312635218
0.35732087382047295,0.03623906955941997
-0.46207701267806833,0.02328538233035773
-0.07969113989012407,-0.09521054228398951
-0.05924157476432857,-0.10226115433468774
-0.0749100706935979,-0.09695550172041215
-0.07306529175788345,-0.09742457918762863
-0.07708275154270985,-0.09630752288674777
-0.07506409560755954,-0.09692492358519597
0.013704038178418301,-0.11896313856432686
0.01576766411769793,-0.11823377719467631
-0.01291904301227494,-0.11875701689493176
0.016410600093872352,-0.11801328636301772
0.01769313479690949,-0.11761017302279936
0.01755237285245338,-0.11764444627486227
0.34528015776335524,0.020624717785401613
0.34433736416092053,0.01867242626073279
0.3445601618757654,0.019029078653060374
0.30177390495277,-0.014431891570744145
0.29235928375356784,-0.0180086289800776
0.3602027608134478,0.03891112696041078
-0.4622486964109702,0.023292393187203924
-0.4640300843361159,0.023346529390211652
-0.07910996452751015,-0.09549895141741159
-0.05749555074947514,-0.10295530503846947
-0.05544224580764773,-0.10369943450307649
-0.05362843476199357,-0.10440658092480905
-0.043779580997192716,-0.10811839449380732
-0.04199465292521141,-0.10893469660661713
-0.013285861723088634,-0.11868558464073392
0.018225948734333544,-0.11751038785201517
0.056737192194171775,-0.1035017277716092
0.058092089128096505,-0.10304023562387624
0.05475856218718921,-0.10422071939801103
0.053672583141093105,-0.104644376977281
0.08802984811959155,-0.09224513943211268
0.0875409445054634,-0.09249164370083862
0.3432443526314508,0.016720267657844658
0.3027319737404321,-0.014075077441806388
0.30416537479542344,-0.013505487088884572
0.3025138946197348,-0.014198105301589846
0.30169902192644776,-0.014489077949879381
0.2930236894873453,-0.01790788487971503
0.36158096760874353,0.04014155150388072
-0.4659824198596263,0.02423959889653874
-0.05348080721105833,-0.10446553509245667
-0.05157359259157815,-0.10522421058348588
-0.04964171734179476,-0.10599331517696096
-0.0477422278652528,-0.10672144391214229
-0.045737497349864306,-0.10742064073394689
-0.04167344771340308,-0.10908595968291773
-0.013608293155915073,-0.11866157579749459
0.018820614722002763,-0.11743495708345236
0.0681654274068354,-0.09952434561659383
0.06850557438344519,-0.09937317694415274
0.06118539468855791,-0.1020578774557605
0.06060270318496539,-0.10224551287587999
0.0588083382014722,-0.10280676717233134
0.05285302540922096,-0.10498433185332391
0.05161135693511392,-0.10553295134964505
0.08998810346452119,-0.0915483920921262
0.0862524938750822,-0.09310230372633305
0.12250171722453923,-0.08001260665837771
0.12131556337570142,-0.08038769082488284
0.11930354979645555,-0.08107710207963778
0.1408005430496687,-0.07326213496657472
0.14281761445315005,-0.07261669024604517
0.15071069409758536,-0.06968553807013358
0.15256780356295316,-0.06901975469800212
0.14841059577415244,-0.07060850049267184
0.1486807034733249,-0.07049427734904452
