"Plane Section: Position[X] (m)","Plane Section: Position[Y] (m)"
3.5,1.224094774558964E-4
3.27,1.212836548559361E-4
3.04,1.2176488994808919E-4
2.8100000000000005,1.2538371696690855E-4
2.58,1.4152462985580518E-4
2.35,1.4856212698054888E-4
2.12,1.5545630464608418E-4
1.8900000000000003,1.8738080712155732E-4
1.6600000000000006,2.062927073534647E-4
1.4300000000000002,2.4808481273512527E-4
1.2000000000000004,2.810670517825501E-4
1.1760000000000002,2.858757455611945E-4
1.1520000000000001,2.857589371806854E-4
1.1280000000000001,2.770050785761049E-4
1.104,3.011630402295129E-4
1.0800000000000005,3.27849306026329E-4
1.056,3.4470166249487893E-4
1.032,3.6131970013818086E-4
1.008,3.696281108824611E-4
0.984,3.7878599975104527E-4
0.9600000000000001,3.909348417135317E-4
0.936,4.006954286756865E-4
0.912,4.12219870403642E-4
0.888,4.250020191400103E-4
0.8640000000000001,4.39925399410701E-4
0.8400000000000003,4.5555504181431195E-4
0.8160000000000003,4.750603516194868E-4
0.7920000000000005,4.967186045730187E-4
0.7680000000000007,5.198737951171636E-4
0.7440000000000007,5.449094350314248E-4
0.7200000000000006,5.756561236281662E-4
0.6960000000000006,6.112825987724717E-4
0.6720000000000006,6.577939188301964E-4
0.6480000000000005,7.078035563893797E-4
0.6240000000000006,7.796942160086818E-4
0.6000000000000005,8.605591554405296E-4
0.5760000000000003,0.0010436516379368939
0.5520000000000003,0.001330225069752135
0.5280000000000002,0.0021103632696172713
0.5059552717187864,0.004000000000000661
0.5040000000000001,0.004215192345442759
0.4680077599206662,0.004000000000000523
0.4560000000000003,0.0018979135452932116
0.4800000000000001,0.005864627037834944
-0.46836469007447135,0.003999999999998868
-0.4559999999999999,0.0016557381140521283
-0.5024349349851094,0.003999999999998999
-0.5040000000000002,0.003859828143009347
-0.4800000000000002,0.006238165601345651
-0.528,0.0019452408414691712
-0.5519999999999998,0.0013552035446514937
-0.5759999999999998,0.001026232424145213
-0.5999999999999999,8.80152471667533E-4
-0.624,7.822696752059618E-4
-0.6479999999999999,7.250683599812706E-4
-0.6719999999999999,6.652546877062244E-4
-0.6960000000000001,6.212226558937523E-4
-0.7200000000000001,5.870442059561924E-4
-0.744,5.55370360043842E-4
-0.768,5.251687411622786E-4
-0.7919999999999999,5.006620046512576E-4
-0.8160000000000001,4.79020182908016E-4
-0.84,4.632041829416056E-4
-0.864,4.457281798918495E-4
-0.888,4.2961421230570203E-4
-0.9119999999999999,4.147686352438092E-4
-0.936,4.004411576485562E-4
-0.96,3.8754202749915285E-4
-0.984,3.781686918219034E-4
-1.008,3.659546187299318E-4
-1.032,3.568418540877158E-4
-1.056,3.439446565006906E-4
-1.08,3.3538339322963437E-4
-1.104,3.2709104538156315E-4
-1.1280000000000001,3.127148699673443E-4
-1.1520000000000001,3.036475972448638E-4
-1.1760000000000002,2.875728310508486E-4
-1.2000000000000002,2.7518926990568917E-4
-1.4299999999999997,2.532663269271281E-4
-1.6599999999999997,2.0777320069313157E-4
-1.89,1.8932106605250765E-4
-2.12,1.800376876459703E-4
-2.3499999999999996,1.436162267002335E-4
-2.58,1.3387739468213866E-4
-2.81,1.3851194569528262E-4
-3.04,1.225043400924175E-4
-3.2699999999999996,1.1545683921577912E-4
-3.5,1.198010958770397E-4
-0.17903632718349033,0.0040773628649199475
-0.1770784488398258,0.0034582285100254284
-0.17510690925239988,0.0027190711381801782
-0.1731471356778317,0.0020264040135297675
-0.17127400907776538,0.0013951536702081668
-0.1848964513787204,0.005464202345216274
-0.1840266098792288,0.005355747993160431
-0.17926743336525566,0.004155434181675969
-0.18627010521276974,0.005259032010287835
-0.16924302985919987,5.987658688047407E-4
-0.16717620372832076,-1.1594497424935595E-4
-0.16341004741203152,-0.0016061863274864586
-0.16141728407399406,-0.002326682233732489
-0.18291281820894423,0.0049625211573647516
-0.1809910367950213,0.004551892810457572
-0.1868499988431394,0.005004655744837598
-0.1608458279340263,-0.0025686295150166576
-0.1654399281198133,-8.331289711097451E-4
-0.18880374462455612,0.0043289640889689635
-0.19075743553986826,0.0037130708196278003
-0.19191336225758035,0.0033110839785897494
-0.1595140271577917,-0.0034854483187526457
-0.15756152746813928,-0.004167868050479814
-0.15668366491212954,-0.004504221369606296
-0.12834831694984444,-0.014343564693843288
-0.12935257733806135,-0.014063969799749457
-0.1927110899649051,0.0031369481849888997
-0.14390765984576775,-0.01017138359136456
-0.14322293034097003,-0.010405471127963776
-0.15561874627146266,-0.005855841502741189
-0.15410447152367254,-0.006489235472934077
-0.15014912676767594,-0.008445990395383043
-0.15170460767837965,-0.006846481777517835
-0.12629629064557082,-0.01510093819722601
-0.13022661595668025,-0.013813452216164451
-0.10847810249760925,-0.020841185587077985
-0.10662330497390268,-0.021494601318948252
-0.19466470120129073,0.002607896719681903
-0.14780003377129547,-0.008675042042337117
-0.14578595226244295,-0.008967688519182034
-0.1419423484698491,-0.010519327047640076
-0.13996152644905785,-0.010663079190103652
-0.15365744231685705,-0.006529121691253935
-0.14975300877270378,-0.008510663060406777
-0.11361702567978037,-0.019096284379154987
-0.11244532378398508,-0.01948236204990606
-0.11044288091843509,-0.020162230007099838
-0.12414284221080903,-0.015562791550962633
-0.12032751063902025,-0.01693385213197092
-0.11827559510282297,-0.017514157947710364
-0.13803698697652322,-0.011489499608543277
-0.1360845136819036,-0.012200687199190213
-0.1355367210781958,-0.01234896497418837
-0.1321792197844931,-0.013244532328373894
-0.0986887337942538,-0.024330545643353307
-0.09670363783682821,-0.02504795678231144
-0.1045582285992015,-0.02222562465654666
-0.10250608372647904,-0.02295723167461078
-0.10073836888930682,-0.023590457596587202
-0.19810217334017827,0.0013636365025873833
-0.19661842357400253,0.0019577181276624533
-0.11635569985858937,-0.018176002139801344
-0.11438483564581384,-0.018838284758436942
-0.12238955473651578,-0.01623480983796312
-0.1341586128414644,-0.012564135037277976
-0.0947785561498353,-0.02574154908918276
-0.09282423652196414,-0.026449158138089818
5.90978187187091E-4,-0.059410304587893314
-9.128144468299294E-4,-0.05886729028442757
-0.20247975037845256,-1.6685923769528673E-4
-0.20052595180183838,5.663737398805243E-4
-0.19857222146625544,0.0012252310340702985
-0.20350377812018342,-5.845332494275174E-4
-0.09090729428982414,-0.02714656120306801
-0.0889158866967436,-0.02786516917523744
-0.08696185603248686,-0.02857356988431066
-0.0851177603994693,-0.029246847478312923
-0.08305386532680892,-0.029990564784563817
-0.08100733127490857,-0.03072975244200475
-0.07719213496072752,-0.032116757643645
-0.07521376230822696,-0.03284453126150922
-0.06547192109193771,-0.03637803864244213
-0.06363078568963319,-0.03704991147612216
0.0012283684837452447,-0.05918485614659161
-0.003400035691519866,-0.05798718488267801
-0.00276806782849851,-0.05821105558520517
-0.004993457502859652,-0.057447202070070175
-0.0047073909286174005,-0.057545350451309055
-0.0010050924904461687,-0.05883499870009261
-0.20638720725187726,-0.00148043468069022
-0.2044335162068113,-8.643999948894084E-4
-0.07924168149888174,-0.031369378515303595
-0.07328745694488996,-0.033542828166269995
-0.07133462888386917,-0.03425452359154642
-0.06942203181673248,-0.03495529810079412
-0.06742627631018654,-0.03567052709885095
-0.06156571963198966,-0.037799935456063846
0.013634718899885424,-0.054791762449704226
0.01569691183198274,-0.054058436989315214
0.011662272107417115,-0.05550895194003244
0.0028311751656271747,-0.05863088290665863
0.0021912646060702756,-0.058852809504696305
-0.006205037169530599,-0.05706741108575707
0.017022392662214565,-0.05358445214599157
-0.2095975070916152,-0.002532067964989912
-0.20834091368526061,-0.0021132410557892917
-0.0595225161642144,-0.03854044846818892
-0.043941438609298965,-0.04407142118417036
-0.04212820245944132,-0.0448101542248526
0.015706167534935686,-0.05408394050522483
0.014582151100760384,-0.054563701099368006
0.010028767397957408,-0.056122659158039656
0.0053677129309776875,-0.057751897134497035
0.003961917618323524,-0.05824595207125523
0.005900345599007634,-0.057572311069084045
0.007446061561289359,-0.057060004504032744
-0.0066120247771801,-0.056933960350777336
-0.007884880332397403,-0.05648680672283734
-0.0077967086404881255,-0.0565482623201012
-0.007672340239207784,-0.05662550223143201
-0.21029458498215386,-0.0027077522704906827
-0.21615534995284544,-0.004219988838892371
-0.21420176047555545,-0.003714652540595654
-0.2122481725848352,-0.0032110454432898177
-0.2171408297106001,-0.004478272652165395
-0.057753984556035934,-0.03917293107659118
-0.05569734895106297,-0.03990793615318647
-0.053712620989041886,-0.04061022745965031
-0.05177517064218854,-0.041286061936415444
-0.049812795754325,-0.04197160236391693
-0.047894772162247676,-0.04264895092772546
-0.045893442974779486,-0.043357469118513584
-0.034282228154957795,-0.04791736974545638
-0.032324475868104906,-0.04868547984720252
-0.04008498725630866,-0.045629616053409594
-0.03806754898943214,-0.04643290911025494
0.013686532223735719,-0.05493457010595754
0.009739762810854057,-0.056231962757603185
0.01306061623628919,-0.055256326619654225
0.007798605633061815,-0.05694037248507093
-0.007885099667103627,-0.05658042903465059
-0.007952187005546296,-0.05656269724513834
-0.007804171002675776,-0.05671788911476915
-0.21810889503167397,-0.004676935394352718
-0.03631849674052595,-0.04711951950086548
-0.03039433320378769,-0.049389420050284176
0.012875231359436946,-0.055534227490849436
-0.008594848715350697,-0.056640043698419254
0.02690897097574431,-0.050756869400525484
0.02556216400014716,-0.051102027958461964
0.023625880377044054,-0.05185931361725735
0.022104744760139072,-0.05250047450159706
0.08635794147096937,-0.029412492425709907
0.08820890905608667,-0.028758138879164875
-0.22592276725430543,-0.006168932397626852
-0.22396932258908928,-0.005821426313173364
-0.22201585508226612,-0.005449025236865589
-0.22006238142030748,-0.005069915695256922
-0.2275071527712959,-0.006421887185376125
-0.02255222794164553,-0.05215183955104436
-0.020706623455450216,-0.052792258911145876
-0.028436543696426685,-0.05008752283162304
-0.026519823593413594,-0.050759856248722604
-0.024510839371563817,-0.05145598855272778
0.01382990522589074,-0.055329732930268945
0.015922153155355168,-0.05467907814302618
-0.011499921569600205,-0.05589580345121111
-0.010659760960658397,-0.056001676786970864
-0.008693652826762743,-0.05660866032634016
0.04340423646379048,-0.04507416359600986
0.04523552122017099,-0.044384762479807015
0.04133235826379942,-0.04581503219288811
0.039294039851708526,-0.04656114212239465
0.027638776326243834,-0.05059241142168072
0.029611762667560396,-0.05007523851520185
0.021828259169354897,-0.05263178492111475
0.016997249967251195,-0.05435414532723975
0.01774044571718213,-0.05418226251904876
0.019792362143129585,-0.0534814781853569
0.06667106769849593,-0.036430522059026166
0.06862156263295499,-0.03571239340436297
0.06483793654543457,-0.03712445819333307
0.060740547364304544,-0.038644950227342344
0.06277601123804319,-0.037883127929995195
0.05693387835221954,-0.040063281612706274
0.0589813726231989,-0.039303157530187156
0.0549636955100663,-0.040805548132190145
0.053038509283939675,-0.041515026142622855
0.051090167127647405,-0.04223908643450199
0.0491850255629218,-0.0429518244670082
0.04718767397079135,-0.043671201673436875
0.09216743131208661,-0.027367226629716152
0.09409207343675566,-0.026691040942845544
0.09017007850236214,-0.028069422141024467
0.08428805558270874,-0.030139665191317173
0.08223426437533478,-0.030858828154033936
0.0764146605799736,-0.032901902943531694
0.0784029701754809,-0.03220147004504924
0.12169257883451992,-0.017446142538268584
0.12374676820333372,-0.016725717996674418
0.11959871109743801,-0.01791001402734118
0.17261063154969217,9.601592486502444E-4
0.17343634575186667,0.0012378016991862841
0.17200146843068137,7.170394985046004E-4
0.1861969921855458,0.004959978669970637
0.18662360424607596,0.004916895287898945
0.18604679678903674,0.0049344752769761475
0.18033628993473205,0.0035161002957211224
0.178454951860487,0.003040439776801654
-0.22982951249734335,-0.006706904178937394
-0.22787616844081154,-0.006469051177245025
-0.018622656674275945,-0.053509710955752555
-0.016593300076452922,-0.05427253275771038
-0.014832100263493473,-0.05492661886834251
-0.012756190631733465,-0.05562277976610976
0.037528244271046104,-0.04720187169066716
0.03547178916587017,-0.047944387830649075
0.03349472011519422,-0.04865955442522156
0.031563721339243206,-0.04936114295524746
0.07448332639205277,-0.033586329465102496
0.07252721328199942,-0.03428897813207922
0.07061325251351626,-0.03498601866298461
0.10382730908834914,-0.023346379469634176
0.10589036635335511,-0.022644917207062416
0.09998645051134526,-0.024654837798046444
0.10191791171949413,-0.02400765329693271
0.09798920769674106,-0.025338754405801755
0.09605492744947487,-0.026006965759106476
0.08046125581123154,-0.0314781630053483
0.12548291195008715,-0.016006291686121214
0.1264652984251951,-0.01580947169006229
0.11572481100134684,-0.0192801291413097
0.11769305452848053,-0.018610903905842153
0.1137743540871326,-0.019893736479926205
0.10795549376417451,-0.021914138628540844
0.10982006406921281,-0.021287759795895846
0.1647056144500112,-0.0026624241695318413
0.1642953853645651,-0.002829784456255192
0.1667077677808908,-0.0019473922124037756
0.17840763255422448,0.0030078358284445954
0.17642879631027192,0.002162470015405222
0.174475117237014,0.0015594833632659076
0.17056742848841466,-6.812091808938695E-6
0.16871029532334927,-5.858137006209624E-4
0.1685207414120044,-7.49296366320497E-4
0.18814959500295156,0.004389957538960435
0.18422104645309667,0.0041491223133799755
0.18228970491758087,0.003831255665448165
-0.23373615082009302,-0.007128343885084912
-0.23178284031401455,-0.0069270574095557
-0.2376427069664572,-0.007460219828469095
-0.2356894455181843,-0.007312401289280691
-0.23959593358662934,-0.007570079323390487
0.10205266402805102,-0.023960458863704955
0.12758429562869172,-0.015662932429118877
0.13983256831843038,-0.012618305489272272
0.14124559940262188,-0.011755188041438505
0.13156111778798377,-0.014563842105929875
0.13344525874929977,-0.013934732918977143
0.12962282825467472,-0.01497507639571447
0.11178512810148858,-0.020609773968929462
0.1627460761521898,-0.00456029043438519
0.16242496338334866,-0.004826531131954575
0.14321328095927394,-0.011326501510363247
0.14717428522636003,-0.010671915825214167
0.14907427765991577,-0.009561703218393391
0.14516667653573795,-0.011032497095595582
0.19010228328594275,0.003913085073748952
0.19205498046148417,0.0034459045715587943
-0.24154916005122518,-0.007679769252165201
0.13930575010223675,-0.012720711457522177
0.13735240500132379,-0.012959702731433131
0.1354203941954728,-0.013175718369853923
0.13149154276990177,-0.014577943448648364
0.16079675015483177,-0.005509944045816686
0.15949540020703734,-0.006776969026848529
0.1549352597433729,-0.007812836152038143
0.15688895905802852,-0.007187788470285389
0.15377608167733003,-0.008724847270754921
0.1510277512197932,-0.009182704935815989
0.15298114467562907,-0.008891011792272863
0.14712012134411429,-0.010684834983634707
0.19375551759973642,0.0029572258063242417
-0.24740913450988716,-0.008330429320848279
-0.24768257251048814,-0.008356501694973187
-0.24545576227900706,-0.00806186918835587
-0.24350242264307326,-0.00782883415848086
-0.2571746053473857,-0.008157928103782307
-0.2552216293710066,-0.008321244478919975
-0.25478605767268103,-0.008349984118870326
-0.26108064748084514,-0.007929583030983907
-0.2591275962744626,-0.00801090645204218
-0.2630337769005521,-0.007933504057861232
0.1588423506694785,-0.006898105514031887
0.19400761384879628,0.002909201489617624
0.19596027111190173,0.002398520556967223
-0.24936237847136428,-0.008459189040249846
-0.2532685961337793,-0.008422152442564316
-0.2513155215922469,-0.008478042975237188
-0.26498689824205823,-0.007928620667657352
-0.28256357841825497,-0.0063458478564848994
-0.28451669148211595,-0.006331942702114647
-0.2816649943913303,-0.00637219638621575
0.1994398971557149,9.988844631851686E-4
0.19791275951123322,0.001703795542348372
-0.27279881380620574,-0.00728806191156063
-0.2708458778943279,-0.007495044451120267
-0.26889291762617773,-0.00767548115925735
-0.26693993537752064,-0.007831961385589952
-0.28588693554902034,-0.0063683226788470515
-0.28061057301612713,-0.0064770931899190455
0.19986509844981748,8.461737440909289E-4
0.2018174648932708,1.8529408750074246E-5
0.2037697240709933,-9.260235000362602E-4
-0.27865760265967976,-0.006646534701369726
-0.27670465600205574,-0.0068418054913313145
-0.2747517324239237,-0.0070622305375400065
-0.28646990165001124,-0.006423870904517562
-0.2884231588354975,-0.0065670434460673435
0.2038314642440855,-9.582707011448586E-4
-0.29233008279697703,-0.007299799876006046
-0.2962361572741944,-0.0071067061615591055
-0.2903767417635727,-0.007065241770219546
-0.3040488592799706,-0.0073232875941847825
-0.300142487142444,-0.007191962304715464
-0.3235798829221934,-0.007067620949495417
-0.31967375763047134,-0.00720533210540724
-0.31576765711562127,-0.007370047491924795
-0.31186148388797574,-0.007455513446199427
-0.3274860454943702,-0.006970541650489879
0.20572215093985072,-0.0016878103832344948
0.20767457309770204,-0.0024547317777075884
-0.3079552364346884,-0.0074600811089156095
-0.33139214100476383,-0.0068003719308824834
-0.3352982153051341,-0.006607085448127301
-0.3392043565127469,-0.006486720987489208
0.20884105344392284,-0.002915992911935294
-0.34311045963091624,-0.006324842952185287
0.20962706224762334,-0.0031486387236065857
0.21157966603623343,-0.0037176013337738723
0.21353228900971968,-0.00426565440973354
0.2154849279699542,-0.004796283585828324
-0.34701653292932416,-0.006130464456445441
-0.35092261480339926,-0.005945432545168444
0.2157779244813786,-0.004875483438664643
-0.3548287459902072,-0.0058141464261503755
-0.3587348864736377,-0.0056929926700279194
0.21743766095850303,-0.005224431602208202
-0.3626408995644663,-0.005432994125896951
0.21939042302866218,-0.005620883670680668
-0.3665468367617597,-0.005090279459043841
0.22524879798057706,-0.006713520859635365
0.2259614654061405,-0.006837952843731547
0.22329599738938452,-0.006359052741891349
0.22134320337220675,-0.005997419631453031
-0.3743586461706937,-0.004334022462201758
0.22915457169986714,-0.007234409672910816
0.23110750938971328,-0.00743945441243905
0.22720165871190928,-0.00700244242942827
-0.3821711428822222,-0.004326854355178295
0.23306047205105168,-0.007617282797885337
0.23501345848676103,-0.007769199570249831
0.23891952183774523,-0.00797441972534582
0.24087259120710297,-0.00803594738422358
0.23696647225697887,-0.007891324546245866
-0.40560575035317303,-0.0011635442610510266
-0.3977952259398094,-0.003320313770538286
-0.3899836395937497,-0.004319686248137657
-0.42904235649966743,-1.7858419218811923E-4
-0.4368556112575795,-9.97608391617541E-4
-0.4212292162040253,5.156879599054647E-4
-0.4134168488615504,3.6752094651700944E-4
-0.4446679417185714,-8.09244359936721E-4
0.24282564282323832,-0.008116824229324688
-0.45247929070035775,4.488306896983955E-4
0.24673154735124345,-0.008495145022829323
0.24868439823500815,-0.00879479943499573
0.24477864180269415,-0.00825506960574478
-0.4759135839264492,0.00395463522510878
-0.4837246241697385,0.005549203374612429
-0.4747140110834619,0.0035705586884630146
-0.46029093533056475,0.0013846794789008372
-0.46810316374048605,0.0016842686392020668
-0.4915373880699419,0.005265163358716579
0.24897436008293575,-0.008812193412897408
0.2506373737050925,-0.008958667573038266
0.2604027309113168,-0.009255015190576922
0.2623559245381753,-0.009181114997486696
0.2584496107195752,-0.009248878686778018
0.2564965643230798,-0.009162312971489336
0.25454352228525035,-0.009070996755696357
0.2525904427350143,-0.009020565196315184
0.2643091584258059,-0.009063334722697434
0.2682157141287785,-0.008731942052024561
0.27016903884924437,-0.008515163356307072
0.26723509207107454,-0.008828947964754202
0.26626242184525784,-0.008913367815374423
0.27212235653033,-0.008306056861504263
