"Plane Section: Position[X] (m)","Plane Section: Position[Y] (m)"
3.5,9.870698123370424E-4
3.2699999999999996,9.935380432321487E-4
3.04,0.0010319125149104683
2.8100000000000005,0.0010920076579466506
2.58,0.001181369110435613
2.35,0.0013176333376041357
2.1200000000000006,0.00151064427339551
1.8900000000000001,0.0017909456554305956
1.6600000000000004,0.0021598641073245915
1.4300000000000002,0.002745187849290554
1.2000000000000004,0.0034365589448324897
1.1760000000000002,0.0037780452472083604
1.1520000000000001,0.0039310002287423
1.145470819188261,0.003999999999999839
1.1279999999999997,0.004184066123047501
1.104,0.00443730830869212
1.08,0.004725101009367018
1.056,0.005021695137146503
1.032,0.00528833790171239
1.008,0.005525671363270776
0.9840000000000002,0.005784733826037637
0.9600000000000002,0.0060956941590897176
0.936,0.006406173451953996
0.9120000000000003,0.006741056696567759
0.888,0.007105544850989761
0.8640000000000003,0.007531663969458556
0.8400000000000001,0.008006103589570799
0.8160000000000001,0.008512924000262833
0.7920000000000004,0.00910571765891096
0.7680000000000005,0.00975186076755211
0.7440000000000003,0.010471365131527655
0.7200000000000003,0.011325521495703261
0.701386242207036,0.011999999999999792
0.6960000000000002,0.01220095414351104
0.6720000000000002,0.013349900274731739
0.6479999999999999,0.014573534323191743
0.6240000000000001,0.01615687567891687
0.6000000000000001,0.018107743807363297
0.5848308765337078,0.019999999999999032
0.5760000000000003,0.021180985892189252
0.5520000000000004,0.024544172261316194
0.5373952803298202,0.027999999999998727
0.5280000000000005,0.03062350824822205
0.5096352846600393,0.03599999999999795
0.5040000000000007,0.03753413899354142
0.48000000000000065,0.03993508263822687
0.4560000000000007,0.04216310648000722
-0.4799999999999998,0.04060254580544076
-0.4559999999999997,0.04248316607658709
-0.53811667758553,0.027999999999997124
-0.5519999999999999,0.024831150711688007
-0.5073643000884381,0.03599999999999654
-0.5279999999999998,0.030465196727321613
-0.504,0.036981307218955886
-0.5846965897090861,0.019999999999997856
-0.6,0.018158486833996845
-0.5759999999999998,0.02109773379403513
-0.6240000000000002,0.016191501749271225
-0.6480000000000001,0.014625278935046056
-0.6720000000000003,0.01335503377989416
-0.7023415759557926,0.011999999999998732
-0.7200000000000002,0.011294990305672773
-0.6960000000000003,0.012261082888490961
-0.7440000000000003,0.0104727515213798
-0.7680000000000002,0.009746611916413055
-0.7920000000000001,0.009094141480862798
-0.8160000000000002,0.008498570179561273
-0.8400000000000002,0.007989397076902834
-0.8640000000000001,0.007516980445296974
-0.8880000000000001,0.007099958166335756
-0.9120000000000001,0.006721221100221733
-0.9360000000000002,0.006384218211098091
-0.9600000000000001,0.006076255311225829
-0.984,0.005767447611283798
-1.008,0.005505543090181147
-1.032,0.00526262695563092
-1.056,0.005011220886858576
-1.08,0.004778051207688885
-1.104,0.004518399467992871
-1.1513132086415943,0.004000000000000026
-1.1520000000000001,0.003992876658792305
-1.1280000000000001,0.004239326949198197
-1.1760000000000002,0.0038321068545707163
-1.2000000000000002,0.003442536598782192
-1.43,0.0027475476242396542
-1.66,0.0021584579171614413
-1.89,0.001789342782087765
-2.12,0.0015261492950982294
-2.3499999999999996,0.0013148044125907063
-2.58,0.0011814154264057784
-2.81,0.0010965780365008956
-3.0400000000000005,0.0010282693990091973
-3.27,9.922184978086528E-4
-3.5,9.87369294653163E-4
-0.3576070328659535,0.01783464113660886
-0.35549861644653596,0.013926640866968501
-0.3546334442628134,0.012379382760181674
-0.35323944202295177,0.010018515543975124
-0.3499069792165555,0.0061094999311276516
-0.35073187198946465,0.006738532158781673
-0.3585343045530688,0.01887856414640138
-0.3487806518767338,0.004441286424328486
-0.3486065525854038,0.004155295558795182
-0.34682936339240583,0.002226466028094398
-0.3468041188025183,0.0022006747728622613
-0.3608729228463045,0.021743601527478746
-0.3449360114379877,2.459995108652463E-4
-0.3624364210966311,0.023863270117864446
-0.3637033069610223,0.02565220066739187
-0.3448779344940449,1.8092169256332468E-4
-0.34317478583474315,-0.0017085870929874592
-0.3411322733471427,-0.003663407023561973
-0.34292656923776715,-0.0019413463231781067
-0.36603168178129675,0.029560383391932177
-0.3409750064038302,-0.003825424709359957
-0.3391911139572955,-0.005618142882001146
-0.3375038782674902,-0.00757266811142979
-0.33902351349599585,-0.005793802465596552
-0.3663374331833785,0.0301794533388134
-0.36774123258074787,0.0334680528036069
-0.3370722132774845,-0.00799447671701737
-0.33547952827035993,-0.009527472976265104
-0.3333220078115262,-0.01148238830564918
-0.33512060283933864,-0.009821165865104061
-0.3697395424959785,0.037375961740185024
-0.33316896986095823,-0.01162068167704852
-0.33121726390790546,-0.013332222912801112
-0.3311057899309712,-0.013437352324378395
-0.37023696149317115,0.038284402965217026
-0.3716000827859722,0.04128375639724533
-0.29927512905174225,-0.033395279843310574
-0.3009698079076696,-0.032773913579260586
-0.3292655057131578,-0.014980784182802527
-0.3287851346055199,-0.015392402973698722
-0.3263686525344661,-0.017347533111045907
-0.32731370203917975,-0.016574518005662855
-0.37253965528187283,0.04519078711397172
-0.30265249038458003,-0.03204113337673525
-0.2979577147841012,-0.03390935520966121
-0.32126409757703595,-0.02125801866958575
-0.3214580856793987,-0.021108174554213738
-0.32536190092757794,-0.018171340902818807
-0.32390056824207514,-0.019302706052290616
-0.323410042632889,-0.01969922674824358
-0.37413520068740413,0.047943445090637096
-0.29369704699280175,-0.03550274040111106
-0.2954765106276617,-0.034840731369375426
-0.291598484788279,-0.03629332337157938
-0.28959666130376976,-0.03703581291111409
-0.285754575840346,-0.03846720773862337
-0.2877011731175025,-0.03773844865083783
-0.2840202711699285,-0.03913576827032176
-0.30282759263374576,-0.03200952654006787
-0.29737682471812416,-0.03413045235091952
-0.31950611630056547,-0.02250214298493417
-0.31852051894526273,-0.02321342013264852
-0.3778821784422104,0.05300772141034951
-0.28382665504073246,-0.0392102645074093
-0.28187545600454006,-0.03996331735945636
-0.27993505462325463,-0.040709066644197184
-0.3032725158455443,-0.031899056697140445
-0.30501548248410604,-0.031195753857690342
-0.3049767162608728,-0.03121755318195879
-0.31755417161297206,-0.023925877933711013
-0.31565494269538424,-0.02516892279243079
-0.3156021083539429,-0.025206669151760917
-0.31364997144332074,-0.026398669740278772
-0.31249868559003896,-0.027124666571182274
-0.3819387373877979,0.05875238565360378
-0.2780755758931167,-0.04142349655328381
-0.3050457691360263,-0.03118071746438918
-0.3058410582021336,-0.030725924822846917
-0.3056280144596176,-0.031036617118387694
-0.3116978829790624,-0.027649074821723834
-0.3834853486532437,0.06082487191277918
-0.3890801380223507,0.06864201546330848
-0.3897424382233145,0.06936345321286104
-0.3969294839754178,0.07646102916249924
-0.3975485870551708,0.07702334025447764
-0.2760587198820629,-0.0422128093901044
-0.2751702042372912,-0.04257599813799458
-0.3097456332589082,-0.028705077952360755
-0.30909702786514387,-0.029080613909104276
-0.30779342572635526,-0.029811940315862793
-0.4053558586430599,0.08332968946184462
-0.40647511915957657,0.0842814499290753
-0.41316343035688297,0.0892742220357589
-0.27412984959204184,-0.042990158504754655
-0.27234724106419395,-0.043670741328647567
-0.27024920563182964,-0.044482092256596925
-0.2682498585814166,-0.045224454603328745
-0.2644164698909821,-0.046687738895022486
-0.2624919184322563,-0.047431702102348094
-0.260632600861378,-0.04819704277931439
-0.41745530180238305,0.09210306064893979
-0.42097165548897275,0.09443102659113559
-0.25860740854910647,-0.048958262912688594
-0.26055356438819005,-0.048228283157795974
-0.2567426142672145,-0.04964905714725106
-0.2663563176800776,-0.04594047254491808
-0.43272899154854877,0.04791848611590295
-0.4308639486164172,0.04914541830328378
-0.4366353257994007,0.047818537640580444
-0.4287808221397763,0.09845278384250296
-0.43170000038607226,0.09992737927603838
-0.22809530506141812,-0.059754095001549226
-0.22724368719996635,-0.06002072385325767
-0.22522712239330173,-0.060699974562106886
-0.23710118194400803,-0.05671807666948725
-0.23520162914446713,-0.05730450647722901
-0.23824496838998177,-0.05636651155931315
-0.25470629111093385,-0.05039409109688181
-0.2527544697010073,-0.051108544908015925
-0.2509677484656844,-0.051767033750637216
-0.4306997936519617,0.05305153348104131
-0.4405425358036044,0.04666282523984614
-0.43659008411056843,0.10235962814836562
-0.1831435364284013,-0.07580618582555512
-0.18218806808808624,-0.07613072869273624
-0.21548991931991626,-0.06419004947011987
-0.21362263939828552,-0.06485576318924445
-0.22330938641748652,-0.06136561632178509
-0.2213549236889284,-0.062072831857032884
-0.21942643106125714,-0.06278927676126804
-0.21745029986760728,-0.06349905114049344
-0.23314542398648713,-0.058004167844466506
-0.2311870055573756,-0.058700543168501595
-0.22938946604977375,-0.05931844667940886
-0.24885326650793357,-0.052544138089166637
-0.24685324842743206,-0.05327670333846262
-0.23908019182904927,-0.05607813022025338
-0.44297586837517805,0.04524921376451771
-0.42490646551490063,0.0600021247385619
-0.42457391094096075,0.060858954765401
-0.4288144009749768,0.057971839454265
-0.42994488575678075,0.056957158630799816
-0.4257065094850675,0.06867239694056085
-0.4288010764036113,0.07403526837096581
-0.430316263024069,0.07648872340650689
-0.4366061098229863,0.08303984027247209
-0.4380446654730552,0.08430763678337726
-0.44441310702278103,0.08967697787825664
-0.44837231569534713,0.09212870622934018
-0.4522213420913319,0.09482180355884115
-0.4443987931057592,0.10693311185147587
-0.4522113528470151,0.10686433098023375
-0.16108192212493871,-0.08376301943294122
-0.16068718953012734,-0.08389719188986768
-0.1288984782301791,-0.09540300134247189
-0.129453207717062,-0.09519695354740933
-0.17736129226656502,-0.07791618397828284
-0.1783227061397723,-0.07753829712927642
-0.18027170400048004,-0.0768161056571725
-0.18419601907824823,-0.07544384833971834
-0.19005143759950652,-0.07330036164664629
-0.18810288909383063,-0.07402378453234557
-0.18632990872652588,-0.07468674342984018
-0.19984583419879617,-0.06982480015694256
-0.20180007998742325,-0.06911699011898038
-0.197911582410956,-0.07051707136876796
-0.1939689350565722,-0.07190942130520935
-0.19210104158200303,-0.07256425067722852
-0.20963117452278074,-0.06632442082883233
-0.20784840969759638,-0.06697175306205415
-0.20278283908655415,-0.06878011168159362
-0.20572452409259137,-0.0677450863885102
-0.20372070650126575,-0.06845128784043009
-0.21158129870100004,-0.06560531591992627
-0.24494938422945922,-0.05397238949838648
-0.24299718477896165,-0.05468580732619502
-0.24105924904667125,-0.05538474386459414
-0.444450603479802,0.04447314688005867
-0.46003055101118123,0.09879260340282967
-0.45502637003661006,0.10775923112503331
-0.46391298887216614,0.10776660255160161
-0.46254067027473145,0.09995296152929589
-0.1587670710388426,-0.08458028663833606
-0.15763672770206127,-0.0850202049935322
-0.16270215863735757,-0.0832375503623534
-0.12983742841749657,-0.09506036912126442
-0.12761081060051127,-0.09589375048712072
-0.17640975638175993,-0.07828053087281668
-0.17444148799579645,-0.07902865738656456
-0.17249033213834739,-0.07974493507927366
-0.17064131438044422,-0.08044224071998617
-0.19592976119687383,-0.07121964407862778
-0.44835843807985676,0.042564453330852216
-0.14706045890236452,-0.08887883796699338
-0.14499909548392387,-0.08960074010477023
-0.1470917021608339,-0.0888681892345385
-0.14989627979345366,-0.08793843899911628
-0.14913318320169852,-0.08818753486707503
-0.15684797779434106,-0.08538442879179448
-0.15659989299114904,-0.08549222416146218
-0.16861256821437076,-0.08124476128926092
-0.16841016231024133,-0.08132304180911051
-0.16328111367248568,-0.08305418057474483
-0.12690479319686887,-0.09617214693772419
-0.13141205492670255,-0.09450175325455308
-0.1074104937496499,-0.10324417966194852
-0.10612411961310397,-0.1036976949235528
-0.45041197208334305,0.0413491306488156
-0.4522666116999727,0.04024705434875767
-0.14397590840964086,-0.09000517322817042
-0.15101544342995354,-0.08759062728275463
-0.15497043384293913,-0.08621525215414397
-0.16560037443508813,-0.08234836122838889
-0.16478566068700312,-0.08261142928396385
-0.1665736561029989,-0.0820359582265042
-0.12557877613910556,-0.09670591172640686
-0.13292286110289578,-0.093976094365531
-0.13498819745435967,-0.09328487795560964
-0.13340733715291395,-0.09381075888717072
-0.10482960825576365,-0.10418597033562091
-0.10798245547247085,-0.10305398132614736
-0.45617616731986554,0.03626358637169786
-0.45572119357249474,0.03744728329000965
-0.4546425294315665,0.038520333123569124
-0.14408057859046042,-0.09006064595745768
-0.15299215307693742,-0.0869443772556674
-0.10858102113751728,-0.10285867281144287
-0.12522979384897392,-0.09684581606278322
-0.1364909205139017,-0.09283018734539392
-0.13535234108523897,-0.09317326312480238
-0.10555131348811278,-0.10396424313406316
-0.10685951644265362,-0.10354931219811782
-0.10615051759220348,-0.10377003600824315
-0.45812990961435496,0.03552021741122902
-0.14356857530713074,-0.09038798289776681
-0.14332822651844307,-0.09049790106056342
-0.1413144618882216,-0.09132218361834518
-0.1099587487458798,-0.1024065902679098
-0.11023518972092697,-0.10231749559162578
-0.1246136383801821,-0.09716432520953637
-0.1380737635168593,-0.0923930941318332
-0.13735605006947477,-0.09260100214574236
-0.13932469177797796,-0.09204286145923099
-0.10723925039342987,-0.10343697053265927
-0.10721872851813749,-0.10351190006948263
-0.4583547964192102,0.03549634218459948
-0.46008334233831427,0.035150051027714777
-0.11209964302836273,-0.10173080603194823
-0.11197690173230948,-0.10176978665124516
-0.12383272529279044,-0.09758979000018794
-0.11778525983872815,-0.09974157002902075
-0.11944702089201376,-0.09919017696500498
-0.098235605879574,-0.10678993047474421
-0.09628247229499541,-0.10746483994163633
-0.10694844445665003,-0.1037510312721405
-0.4639899048804494,0.034774886119626126
-0.4672631698369278,0.03745685732846857
-0.4678934048291812,0.038091828839734665
-0.11587663272385636,-0.10043428406097932
-0.11392529548771813,-0.1011500647030951
-0.12361656967025558,-0.09769176685023466
-0.11980726810349708,-0.09907934691380586
-0.09435484279333456,-0.10815144804383274
-0.09827805231432105,-0.10677616105595808
-0.09278244164675527,-0.10877984410267341
-0.10663793752967066,-0.1040750911327804
-0.10036453589447936,-0.10613705460213649
-0.47179713570679893,0.04113037536694879
-0.12188038686893975,-0.0984106665758722
-0.09242864916861102,-0.10893613229846302
-0.10635124346867814,-0.10432010567745306
-0.1005600777194237,-0.1060822095546901
-0.06507987030932325,-0.11887469149721908
-0.06493580458915724,-0.11894135771339606
0.005979384987757262,-0.14071587785145287
0.006341920860362248,-0.1405847473649633
-0.0026358999891874916,-0.1414088522310933
-0.0042028866953015545,-0.1408388436024124
-0.004561090498266303,-0.14070879394342545
-0.006438725217712431,-0.14002593913367065
-8.818132316206495E-4,-0.14204776401201907
7.068492173383131E-4,-0.1426287238144412
-0.010311134955743005,-0.13861654243842175
-0.010694510089970237,-0.13847820918930887
-0.008380647409610344,-0.13931857639619216
-0.4745989943201538,0.04136919371913668
-0.47570310988413844,0.04146451327049418
-0.09116893760278355,-0.10950912957802372
-0.08660517057795955,-0.11116714725330447
-0.08683079640612532,-0.1110921602586859
-0.08474701638551221,-0.11180189879955268
-0.08269840622432686,-0.11258750061690333
-0.08259195976351993,-0.11263895372419429
-0.10548218749235018,-0.10481296497844189
-0.10168336163983194,-0.10588306493715965
-0.10225907680937646,-0.1058513860400876
-0.10315178068355835,-0.1056633534995801
-0.06915525194425326,-0.11740163959088182
-0.06902434302708649,-0.1174365051043784
-0.06700788617127719,-0.11809500090584546
-0.06327262325898766,-0.1196394320349132
0.012085153601388718,-0.1385203207792402
0.011735854120436092,-0.13864562387268464
0.007859600550139876,-0.1400381972020994
0.009279458191323715,-0.13952654814053522
0.004052985069481126,-0.14141432373435925
0.002859923264173043,-0.141848820898923
0.0019000826135715985,-0.14219727293813336
-0.01228685401345634,-0.1379074784468145
-0.012467903092026876,-0.13784341539167033
-0.47603782241100245,0.04137038722319466
-0.4796101983645276,0.04045530381810885
-0.0905610413907214,-0.10976873108760365
-0.08857753102406657,-0.11050897866578965
-0.08134633688523231,-0.11330424665536817
-0.10440130207318761,-0.10536663972334107
-0.07060449660781451,-0.11701329773431679
-0.06121640645738714,-0.12041370565864239
0.013713277738748806,-0.13794231902518705
0.014566973250514776,-0.13763783411547725
0.009802938977064106,-0.1393390529779183
0.0022976546247929206,-0.14205434268861766
-0.013695071410194671,-0.137414111824684
0.1040068273218687,-0.10519611922726951
0.10349770055061547,-0.10537232223744517
-0.48351738447749026,0.03932839349562804
-0.08076880824393909,-0.11364713830185963
-0.0610950058930385,-0.12048340506287115
-0.07327908806187379,-0.11624806563611292
-0.0729999498986883,-0.1163259770606891
-0.07500131906014804,-0.11583338630700647
-0.07601071284620077,-0.11556739791501126
-0.07099752954074678,-0.11690176939432138
0.015777003827282504,-0.13721324037150273
-0.014356975578442543,-0.1371956106351199
0.01751472690472443,-0.13659544446804164
0.017547283312391092,-0.13658415529324236
0.01948081981475213,-0.13592329658644312
0.05491129853376001,-0.12306092974073285
0.05473921340967415,-0.12312113782589126
0.05280383762191471,-0.12380254523946453
0.050853948582249786,-0.12452234042510804
0.05061925061904362,-0.12461907675965617
0.10173255601577263,-0.10601257892669148
0.1053001595291121,-0.10476820442484988
0.10102987965872397,-0.1062768439113657
0.0919173775838387,-0.1096123611235269
0.09383514180005861,-0.10891722421916855
0.3563034922843084,0.01140525836454176
0.3547843152268483,0.009431211729278174
0.3514379932331771,0.005527736150576826
0.3523930331666856,0.006332579234802117
0.3598049618377852,0.01723954980403593
0.35762816479216764,0.013335104107517518
-0.49132986592508054,0.03935399945873766
-0.4874237206940404,0.03922596998599823
-0.07967739983695624,-0.11422938752310506
-0.059935121051854015,-0.12111741133529262
-0.07706481784530429,-0.11533889115924474
-0.014490925625537616,-0.13715145019715635
0.0196104971906007,-0.13591448230351783
0.07284286257480024,-0.11655121372397698
0.07234648433037306,-0.11672512384513814
0.07161063367358382,-0.11699855117854516
0.056729983590389596,-0.1224355874491932
0.05859284298994506,-0.1217868220661778
0.05199216843398739,-0.12418307243117731
0.050861160719581314,-0.12454220686743664
0.10556512412285388,-0.10468287584733053
0.10007872113536431,-0.10666374912269308
0.09460145564927333,-0.108652167019837
0.09081634615379416,-0.1100262796098774
0.08204323029618323,-0.11326656489291359
0.08233154139463111,-0.11316893547982815
0.10632622226378118,-0.10445811928926928
0.14716281305336767,-0.08972677682516841
0.14653420445406212,-0.0899351969148717
0.35043816444689896,0.004231248950404456
0.3500144056576892,0.003575791340732187
0.3481659829129581,0.0016241989305397658
0.34848314126536994,0.001943707402472431
0.36021502831463625,0.017776208928552882
-0.07910372375963816,-0.11456235259035297
-0.05747414681285011,-0.12197708754244752
-0.05914411877046071,-0.12140605590058662
-0.05925376529350022,-0.1213749905518792
-0.0554083036886996,-0.12268685655253625
-0.05345533148161308,-0.12347616608559825
-0.053371144992531205,-0.12351267119843107
-0.01490762419249917,-0.13704102294889278
-0.04286378074832616,-0.12766304167154344
-0.04379699629853374,-0.12724658123461496
0.01983133722297529,-0.13585845543683203
0.0743115853381378,-0.11604723131235578
0.07543150374820846,-0.11567386396683726
0.0709217916250087,-0.11731102987004877
0.06077116278885444,-0.12108963553360047
0.060584511195068746,-0.12114909547502595
