"Plane Section: Position[X] (m)","Plane Section: Position[Y] (m)"
3.5,0.0011133824900624485
3.27,0.0011209337996450183
3.04,0.0011646289625881884
2.81,0.0012327966298159693
2.58,0.001332877132531538
2.3499999999999996,0.001486899866014506
2.12,0.0017061951203451884
1.8900000000000003,0.0020162274446969483
1.6600000000000004,0.0024112582182837863
1.4300000000000002,0.0030849635209894795
1.2000000000000004,0.00398691614457659
1.19929248776356,0.0039999999999997884
1.1760000000000002,0.004421143135394427
1.1520000000000001,0.004575145266554899
1.128,0.004906479174021892
1.104,0.005216215512741376
1.0800000000000005,0.005518146268699653
1.0560000000000005,0.0058274612870970344
1.032,0.006098958515095084
1.008,0.006346623259552187
0.9840000000000002,0.006630977236303727
0.9600000000000002,0.0069805604769625695
0.936,0.0073314350115845075
0.9120000000000003,0.007718200096362088
0.8880000000000001,0.008146774770058617
0.8640000000000003,0.00864871129217236
0.8400000000000002,0.009204988536598322
0.8160000000000003,0.009791580457389183
0.7920000000000004,0.01047217800493595
0.7680000000000005,0.01122275081355366
0.746987378349802,0.01200000000000015
0.7440000000000003,0.012115159504577384
0.7200000000000003,0.01315773487985052
0.6960000000000003,0.014140360973568992
0.6720000000000002,0.015445506135336084
0.6480000000000001,0.01689200362812917
0.6240000000000003,0.01872087553960075
0.6115625091604151,0.01999999999999933
0.6000000000000003,0.021193243212558888
0.5760000000000005,0.02460492369553441
0.556905441791854,0.02799999999999868
0.5520000000000005,0.02893201320271053
0.5280000000000007,0.0352692453169724
0.5260015102386839,0.035999999999998006
0.5040000000000007,0.042483013460946475
0.4958471348315783,0.04399999999999718
0.48000000000000076,0.04676398938671311
0.4575248091070302,0.05199999999999633
0.4560000000000004,0.052648057986431726
-0.5252420088466466,0.03599999999999667
-0.5279999999999999,0.035133192855268544
-0.49507241705321836,0.043999999999995716
-0.5039999999999997,0.04215154642904532
-0.4799999999999998,0.04677945370555072
-0.45599999999999985,0.05171059025731567
-0.5579831927197103,0.027999999999997097
-0.5759999999999998,0.024600029457899616
-0.5519999999999999,0.029233655095353372
-0.6121370651563484,0.01999999999999802
-0.6240000000000001,0.018775250926069242
-0.6,0.021271416362533803
-0.6480000000000001,0.01694939560115171
-0.6720000000000002,0.015454627450969524
-0.6960000000000002,0.014206587743223255
-0.7200000000000003,0.013131557656332293
-0.7470252232919642,0.011999999999998859
-0.7680000000000002,0.01121625991168779
-0.7440000000000003,0.012117912358636603
-0.792,0.010461372733343785
-0.8160000000000003,0.009776038247205864
-0.8400000000000002,0.009184376901846349
-0.8640000000000001,0.00863346121376452
-0.8880000000000002,0.008143071418881308
-0.9120000000000001,0.007698589920718021
-0.9360000000000002,0.007309914995475012
-0.96,0.006958566698628724
-0.9840000000000001,0.006603825268751721
-1.008,0.006313150785114614
-1.032,0.0060524196340497275
-1.056,0.005794513159001973
-1.08,0.005557634950535732
-1.104,0.005285951829914619
-1.1280000000000001,0.004972042501147337
-1.1520000000000001,0.004681565828064012
-1.1760000000000002,0.004527115327678948
-1.2035695732513605,0.0040000000000000166
-1.43,0.0030855648122658746
-1.2000000000000002,0.004015187388257813
-1.6599999999999997,0.002408510542339197
-1.8900000000000001,0.0020127517796554857
-2.12,0.0017194451599815757
-2.35,0.0014840807291292188
-2.58,0.0013336657911419978
-2.81,0.0012360241422986903
-3.0400000000000005,0.0011603930754685433
-3.2700000000000005,0.0011200845232156335
-3.5,0.0011138716979132034
-0.358531500137933,0.008294790766657921
-0.3571886196514107,0.0067204174986216
-0.3546288807563865,0.003789309682910365
-0.3537672720242576,0.00281140826655734
-0.350513560378949,-0.0010974658334457473
-0.35072656859949725,-0.0010972941266102596
-0.3602784944511923,0.010629159529041678
-0.34904849105254226,-0.0030517724666418574
-0.36222128619898974,0.014536976890901346
-0.3487753059406835,-0.0034083794319799193
-0.3475535540206772,-0.005006103176334122
-0.3459000090654315,-0.006960561740561021
-0.34682410889755033,-0.005800863240235262
-0.36243246840147775,0.014848540357357578
-0.3648682044797009,0.01844536185217104
-0.34487275203673656,-0.00799508772738285
-0.3439732503541374,-0.008915240543553436
-0.3419331083341691,-0.010870010745318966
-0.3429211069362065,-0.009831740965600752
-0.36633407994874073,0.020604274434457923
-0.3674281303436777,0.022353676688478992
-0.34096957486399704,-0.011808609708999988
-0.3399474963145767,-0.012824736990211106
-0.3380391721532834,-0.014779400933040782
-0.3390179754376642,-0.013701923351328499
-0.36918370459234245,0.02626134313350887
-0.3370664338200377,-0.015666950677896377
-0.3358972118363698,-0.016734253210970985
-0.33364310173946843,-0.01868919589332462
-0.3351146929384413,-0.017384784201023244
-0.370234684420475,0.027609320244111932
-0.3721655122369365,0.030169998050521882
-0.333162962035151,-0.01911499618841805
-0.3313614006615985,-0.02064416081687627
-0.37413676951798336,0.03277759902392118
-0.3312111730003655,-0.02077309405827995
-0.3292593042851396,-0.02233234558555371
-0.3289429795793898,-0.02259923595101782
-0.326527812125605,-0.024554308462392007
-0.32730745604210476,-0.023916993580012383
-0.3751618687767403,0.034078664695475575
-0.3010065699761132,-0.04004471938689086
-0.2992987437243608,-0.040663385303353894
-0.3213470851889963,-0.02846473593764332
-0.3214516810364287,-0.028385271575328455
-0.325355606129919,-0.025499570937880356
-0.3240370046049481,-0.02650944194754002
-0.3234036990059645,-0.027011175119454816
-0.3763310708405144,0.03798585846337543
-0.29548557104642004,-0.042089013283461436
-0.2937067211598756,-0.0427537543844028
-0.3027012010799055,-0.03928681528197582
-0.29738910039376365,-0.041383449801284514
-0.31949965788320017,-0.029752937469757587
-0.31857528566230775,-0.03042009593164982
-0.37878855346457957,0.04580034198885929
-0.3775325377415859,0.041893078152786534
-0.29246034623852535,-0.043259531660595985
-0.29162346622744867,-0.043586502596696775
-0.28963009058611694,-0.044352198995018216
-0.2877433844642093,-0.045078910397405664
-0.28580256203102833,-0.04582349815241722
-0.28388291681841943,-0.04658923761607782
-0.28368527137362765,-0.04667216176494332
-0.3030375676996069,-0.03920576639319111
-0.3050016703369374,-0.03840167969919484
-0.3049704344643096,-0.038423887845689925
-0.3175476623444882,-0.031154860129577397
-0.31561575337878556,-0.032375607257855106
-0.3155955322642461,-0.03238987939873521
-0.31364336983732205,-0.03358477150361301
-0.31245415125259224,-0.03433128147340182
-0.3819325958116573,0.053465052312546224
-0.2819366716715573,-0.04735586973729758
-0.2799961651474625,-0.04810133328468208
-0.30503152873141465,-0.03838257609213297
-0.3058342959905662,-0.037838180890121205
-0.30554587671886196,-0.03824310153217938
-0.3116912425172674,-0.03482321489183627
-0.3819989002224334,0.05361543240136112
-0.3861404289006978,0.06143127344357929
-0.38973497892124565,0.0660185505933637
-0.39234011369666055,0.0692487735742478
-0.3975391838036437,0.07631207721188744
-0.4049884502717088,0.08488397452891631
-0.3981631062736875,0.07706597005170375
-0.27812796501930925,-0.04879186361999682
-0.30973894736620894,-0.0358534581615878
-0.3089794974506025,-0.0362872080412552
-0.307786711070425,-0.03695671341318231
-0.40534449643689074,0.08523140093241145
-0.2760959749714824,-0.04953970351504194
-0.2741482601296238,-0.0502654119362204
-0.27236411356690915,-0.05094178155020204
-0.27026434441643943,-0.05174838398307303
-0.26828535796775943,-0.05254654744574086
-0.4131512873743405,0.09231683759873405
-0.4136381937304633,0.09270344966234717
-0.235912604076054,-0.06410361477699357
-0.2351387308592638,-0.06435693185480179
-0.2585984737340527,-0.056158593121543726
-0.2605486549300849,-0.055439643994214256
-0.2567328030479191,-0.0568469861440717
-0.2669561245558566,-0.053092476158223594
-0.2625162663559718,-0.054723240038181346
-0.2644550838040053,-0.05401837154852752
-0.42095933408580416,0.09784444350779872
-0.23307809987138933,-0.06504446053952269
-0.23111736892531398,-0.06573449700648662
-0.22932783295608455,-0.06637433258932142
-0.22720661666929226,-0.06714392078486348
-0.22521028493411582,-0.06787861865115005
-0.23702197538484923,-0.0637258144089162
-0.24679427719254032,-0.06033990554600324
-0.2488206827928733,-0.05967965779482015
-0.23898143283470158,-0.06303228779634956
-0.25469616421238356,-0.057591155070026046
-0.2527431197550993,-0.05830225713943722
-0.24983661606776963,-0.05933910052903467
-0.25095052525195216,-0.05894465011369622
-0.2664054517368289,-0.05329993419229804
-0.43334004252684466,0.07709432633045088
-0.4365954707185289,0.0840353662298138
-0.42480574094095636,0.10052495440815795
-0.4441706870816143,0.09272806203581949
-0.43709182613896896,0.08490985319749914
-0.18416379863155075,-0.0825803191581204
-0.18217511046881213,-0.08331998830693582
-0.1880818961452539,-0.0811910258036833
-0.1890565204264646,-0.08084936995406619
-0.1900388991153886,-0.08049077244039911
-0.19002959845680556,-0.0804943099391556
-0.18629561677379225,-0.08181753845700096
-0.19393403762856237,-0.07903855761558683
-0.19207888144722718,-0.07972829311652976
-0.20959051246945998,-0.07343776693937731
-0.20780833191042247,-0.07408670020856245
-0.20569001549920546,-0.07487529636888043
-0.2036961234167642,-0.07560869808314886
-0.21227336483464812,-0.07251842962762181
-0.21155251013729592,-0.07275120205191911
-0.21547801782854578,-0.07138221704091244
-0.2136119952767107,-0.07205137570617169
-0.22330142873254546,-0.06856859414475502
-0.22134251271585426,-0.06926360460985125
-0.21940563372659427,-0.0699570666563134
-0.21743121790861475,-0.07067154147155925
-0.24486742981198542,-0.06097260402450095
-0.24290052443982857,-0.06164571885031249
-0.2409575868545434,-0.06233094677677022
-0.433856772859752,0.06928224033074475
-0.43657585358766704,0.10837108982260023
-0.4444006985761249,0.09305985705589191
-0.45198932725918783,0.10054686721334669
-0.1606802674004669,-0.0911029873022622
-0.1626637258934317,-0.09035699258692871
-0.18027442183975717,-0.08404832456496908
-0.17977038632985956,-0.08423772608582625
-0.20178457470348196,-0.07629927674309649
-0.19982365402199817,-0.0769887932209457
-0.19679145155930464,-0.07802702202541174
-0.1958904844262097,-0.078336780005165
-0.19788049308303013,-0.07765664713269836
-0.4366116587644943,0.06395354005569112
-0.1495977252141441,-0.095153561982249
-0.14910125371892013,-0.09532479985598794
-0.16045882698886144,-0.09119052629772789
-0.16430932226705125,-0.0897855445097756
-0.1285549099308888,-0.10276929111099387
-0.1294531005905723,-0.10242141992214064
-0.1076469431066759,-0.11032887797144213
-0.10611071120421592,-0.11088570701721515
-0.1783263818286121,-0.08477314182675784
-0.17639744746785838,-0.08547157097867285
-0.1744247930424664,-0.08620767902402708
-0.17249342196031683,-0.08697817917698122
-0.17099628110460285,-0.08757975205771379
-0.4389743857027839,0.061473863122100667
-0.14780930320780294,-0.09580612747487874
-0.1509705766735207,-0.09469244212561459
-0.15945943113960714,-0.09164885636296287
-0.16901325900081263,-0.08830332389448177
-0.1686038805759325,-0.08844573350111647
-0.1664151146750735,-0.0891108429428583
-0.16471724647640595,-0.08964871285711154
-0.16650950129465325,-0.08908492005779937
-0.13338586590304857,-0.1009766783462967
-0.1352926151163052,-0.10031081437120526
-0.13139879200924884,-0.10169016610442004
-0.12762414339036537,-0.10315505188773762
-0.1057257745373064,-0.11102988048060965
-0.10695290669385912,-0.11060987355304
-0.10611809191324177,-0.11090593459915289
-0.1079625829804043,-0.11022428014857477
-0.17066028236897385,-0.0877190019933951
-0.4444294492394262,0.0573936732465401
-0.45615611834458925,0.047574474879160264
-0.452994811563827,0.049766411239999496
-0.4501202100026912,0.05367034528049786
-0.45224728719330765,0.05077490717496755
-0.4596244865253397,0.045865504180212575
-0.1527157749761986,-0.09410950451579467
-0.1475312737703749,-0.09600124291501998
-0.15881268727567982,-0.09193006764955658
-0.15687487253751806,-0.09268290830940659
-0.1549455448596821,-0.09337182245726267
-0.10830068048903314,-0.11011809327552063
-0.12727764918366855,-0.10329778709170265
-0.1372608033471843,-0.09965509991182385
-0.13531740136632456,-0.1003022755086771
-0.10590233802640256,-0.11097869203482147
-0.10797135210593711,-0.11024831282682303
-0.46006394612210866,0.04561876215260234
-0.14710516694628126,-0.09622613170458186
-0.14595185647423115,-0.09671804673232876
-0.15294472487195368,-0.09403917700005535
-0.10992905991761136,-0.1095499911532915
-0.11048898433281708,-0.10936124736960562
-0.1082081622688947,-0.11015717162577107
-0.10923024918202107,-0.10982053892431565
-0.12700131671841758,-0.10349228333487279
-0.13890102243976027,-0.0991502783166701
-0.13729027990148668,-0.09964553074213668
-0.14109257700956737,-0.0984911171186513
-0.13924699030706178,-0.09905470138056156
-0.46397156599634987,0.04392096056366778
-0.14508453484144826,-0.09705966019848625
-0.14332766289471127,-0.09772113968790513
-0.14127500018947087,-0.09843882386023006
-0.11272707180606001,-0.10860705115846574
-0.11193062367360754,-0.108867729453787
-0.10863854019361888,-0.11009888845207941
-0.12583277027713236,-0.10405916719992393
-0.46787763440612556,0.0441478038517332
-0.4717817543392627,0.04679179922099386
-0.4702261572369102,0.045874050232318185
-0.11474637474387828,-0.10796390816302451
-0.11387633835329428,-0.10824067107626564
-0.10858435199071788,-0.11021232794271897
-0.11977653116693705,-0.10621989243428254
-0.11777561745924384,-0.10693992247659867
-0.12565485201744978,-0.10413917145825013
-0.09825572868225012,-0.1139397538893786
-0.09626666644719814,-0.11464629289168493
-0.10031382395489943,-0.11322285423570505
-0.47568735579630084,0.0475979133786405
-0.11586205055010074,-0.10761909826153777
-0.1088274228897764,-0.11026413608078199
-0.12363153223654876,-0.1049575566502279
-0.12140788220233475,-0.10567373538132721
-0.09435443460702415,-0.11537509877182964
-0.09394806888835579,-0.11555286460525707
-0.10051878039083181,-0.11315532108738366
-0.10267318961652033,-0.11250971360860701
-0.10211108184428498,-0.11267059767789045
-0.004639708349863553,-0.14787544736997313
-0.004551618506531509,-0.14790753558873257
-0.479594791552012,0.0461285171320585
-0.10918593949133484,-0.11034407033542992
-0.12184403604044414,-0.10553583228442333
-0.0924400682442596,-0.11619220208357105
-0.1082271012391,-0.11094921927478817
-0.10743094363947017,-0.11130056569320695
-0.10383601305142655,-0.11229616965561562
0.005988488517454793,-0.14791454969580672
0.006844295181165906,-0.14760484270278929
-0.0026264555013152642,-0.14860761596594838
-0.006429280742624978,-0.1472247984290413
-8.724080030854731E-4,-0.14924643437627794
7.161535044261548E-4,-0.14982757663214896
-0.010301414550741744,-0.14581465743059763
-0.011266274261936599,-0.14546574668156384
-0.008371107196835963,-0.14651718116364493
-0.4802799876490046,0.04588215466800478
-0.0905288410505892,-0.11690526712618435
-0.08853482228308177,-0.1176167164216227
-0.08656862907784019,-0.11829178301313914
-0.08471724306100265,-0.11894508065647297
-0.0832611368774222,-0.11959284930795483
-0.10569011474050023,-0.11193576525126156
-0.10427500131591544,-0.11224532557611361
-0.10643249401358248,-0.1117675854546499
-0.07008428619942345,-0.12426036264048068
-0.06899426509904708,-0.12457884559019572
-0.0669983757629429,-0.1252937038102826
-0.06550900360563687,-0.12592980728450226
-0.06508561681414506,-0.1261152124030704
-0.0634380170736389,-0.1268259765532615
0.009811228190753214,-0.14653549464449783
0.009924863721787568,-0.14649463720393988
0.01174406913046767,-0.14584187569716706
0.013031956963205003,-0.14537891088722765
0.007868403972397155,-0.14723603968238075
0.004062195563555752,-0.1486132832163377
0.0028195358519784736,-0.1490660622044223
0.0020212579120247117,-0.14935588308512082
-0.013090448354570957,-0.1448124706107012
-0.012275607268789433,-0.14510141178157687
0.10454937445438914,-0.11217130734650825
0.10349868231444863,-0.11254865323264156
-0.48350211961897493,0.04479271249252348
-0.0827165322877922,-0.11986195804722803
-0.08180107773334443,-0.12033635165399384
-0.07167263992108747,-0.12382129941555138
-0.07095580621038694,-0.12401220635153096
-0.06328925466046756,-0.1269097908541542
0.01570307280724254,-0.1444276332474141
0.01371949589732897,-0.14513307212860005
0.0023069276783267353,-0.14925346704391876
-0.014340110748429988,-0.14437415039397222
0.01912267519756313,-0.1432138575159052
0.017551910207078476,-0.14377052583136402
0.05280357583841794,-0.13097544934636493
0.05384144438547703,-0.1306089441650562
0.050851698379512436,-0.1316897668957459
0.05052613403443416,-0.13181259281626914
0.1027899240779081,-0.11281008919444857
0.1055493338309241,-0.11181300622724102
0.10690172885631799,-0.1113450041189789
-0.49131477769535464,0.04459976205778905
-0.08078880247267449,-0.12092673842217533
-0.07453841084634474,-0.12298637820148048
-0.07296090792580165,-0.12344377247983848
-0.07699516685146218,-0.12237283126072651
-0.07494233557342381,-0.12289654522346913
-0.06125632041545784,-0.12774787422303918
-0.01438527211959524,-0.14435851306630815
0.015781794677468108,-0.14440006296783955
0.01959654712217069,-0.14304967966647386
0.054739288373035634,-0.13029496809557306
0.05648570446294306,-0.12969053083003654
0.05241957237630388,-0.1311667710258327
0.05085528012082047,-0.13169963238564414
0.10173902827391199,-0.11320403288661503
0.1011185418851882,-0.11344463415673571
0.09383519635424777,-0.11609099894148055
0.0930483443874313,-0.11639895730056046
0.09318187166961664,-0.11636770808153202
0.1076245094597904,-0.11110989851160952
0.10798450938398678,-0.11099349781679127
0.356308311901991,0.003121503620991812
0.3554830677439332,0.0022396785343999975
0.3520178884344797,-0.0016637794388676896
0.352398202948613,-0.0016640860120270564
0.3588759252476794,0.006143194806576586
0.3602183128647132,0.0077731271175116474
-0.08009803802476273,-0.12127388907783981
-0.07747099951662792,-0.12223245180640155
-0.05922720372442637,-0.1285269919045167
-0.015125138907858392,-0.1441163011811482
0.020073021859276948,-0.14291043233693762
0.07499564180786784,-0.12297035722325178
0.07430762256705997,-0.12320993806741412
0.07235598511882382,-0.12392491669827585
0.07226905324518555,-0.12396026594924263
0.05672953882367954,-0.12960798378670202
0.05879405601339945,-0.12889475253889457
0.05358374278916425,-0.1308065182104488
0.05282442106928115,-0.13103286511058582
0.10112824214447946,-0.11348271781171282
0.09653732027779457,-0.1151494869306203
0.09579670463353117,-0.11540320836680425
0.09270781372038989,-0.11656485824033333
0.09297975052949639,-0.11650349781141835
0.08408478514659533,-0.11968731027585172
0.08559690519554812,-0.1191838959906038
0.08617406565309513,-0.11901355030889338
0.08695217199473038,-0.11878546823394624
0.08203513124529073,-0.12041787705398355
0.07730909291671384,-0.12219284930559153
0.07624640297845905,-0.12254601619677513
0.10874720667639598,-0.11077900287283579
0.16222883330348264,-0.09142329283566142
0.1630982464048939,-0.09114005647613857
0.14783092208161555,-0.09668297475033381
0.1485927188795511,-0.09637919025346367
0.35044351072830704,-0.003607489348815204
0.3504383335705411,-0.003615631787503594
0.3619497198124114,0.0100469682767551
-0.07911512223385804,-0.12181841489569623
-0.05743946815323725,-0.1291068401537481
-0.05539613939725099,-0.12987830925002408
-0.05391716606142231,-0.13051072799922203
-0.015526014047989138,-0.14401165832924565
-0.04329625164448351,-0.1347022498191487
-0.04379407048953232,-0.13446337362535682
0.02043773628246323,-0.14282295383262625
0.020375917543525336,-0.14286287186614802
0.07230024921241845,-0.12401134812787412
0.05981371416642542,-0.12854467969418196
0.06057478793422588,-0.1282959280066925
0.062052802793377125,-0.12782537369739297
0.054032419442766204,-0.13073723490495856
0.10207965667791573,-0.11319970763736184
0.10176843855039608,-0.11328504007294106
