"Plane Section: Position[X] (m)","Plane Section: Position[Y] (m)"
3.5,0.001491230672118629
3.2700000000000005,0.0015019148893174027
3.04,0.0015611137764535918
2.8100000000000005,0.001653091235477962
2.58,0.0017842017724742898
2.35,0.001988741352533612
2.1200000000000006,0.0022760108954464012
1.8900000000000003,0.0026472545150603675
1.6600000000000004,0.0031560730666399116
1.480621591450024,0.003999999999999988
1.4300000000000002,0.0042490061168643034
1.2000000000000006,0.005712029846416549
1.1760000000000002,0.0063126481401473734
1.1520000000000004,0.0064493380649675155
1.1280000000000001,0.006960547966690014
1.104,0.007387284915443219
1.0800000000000005,0.007744606784447706
1.0560000000000007,0.00811944128479735
1.032,0.008433355968953872
1.0080000000000005,0.00874842338621492
0.9840000000000003,0.00913785419903946
0.9600000000000003,0.009623818409046357
0.9360000000000003,0.010130212147552296
0.9120000000000004,0.01068865486880189
0.8880000000000003,0.011319420714536007
0.8666913202858546,0.011999999999999842
0.8640000000000008,0.012089349531768427
0.8400000000000003,0.012944545790040007
0.8160000000000003,0.01381850014276654
0.7920000000000003,0.014805503223000335
0.7680000000000003,0.015916541841338547
0.7440000000000002,0.017160682619223377
0.7200000000000003,0.018563278003605244
0.696996390292653,0.019999999999999345
0.6960000000000003,0.020066288096152022
0.6720000000000004,0.022048635259704494
0.6480000000000004,0.024225209178181238
0.6240000000000008,0.026959159552342134
0.6177175030527325,0.027999999999998602
0.6000000000000008,0.03077508166684531
0.5760000000000007,0.035857619710102345
0.5755155066315498,0.0359999999999982
0.5520000000000009,0.042499401591264814
0.54720425294724,0.0439999999999974
0.5280000000000005,0.05046642788574567
0.5237333033409451,0.05199999999999666
0.5040000000000002,0.059840642487033836
0.5035730452610464,0.059999999999996
0.4869609391945724,0.0679999999999952
0.48000000000000065,0.07189864885226166
0.47266118039967936,0.07599999999999422
0.46418138481746607,0.08399999999999364
0.4625264390192938,0.09199999999999287
0.46359240753466796,0.09999999999999233
0.4561052187663461,0.12166666666665893
0.4559999999999992,0.12172184324491189
-0.5758285177916889,0.03599999999999676
-0.5759999999999998,0.03595143121462144
-0.5478051332886381,0.04399999999999588
-0.5519999999999998,0.042629652029611005
-0.5242105632837692,0.051999999999995175
-0.5279999999999999,0.05069051383586795
-0.5025081014367496,0.05999999999999445
-0.5040000000000001,0.059464461848320896
-0.6181153501991477,0.02799999999999746
-0.6240000000000001,0.027033186358982667
-0.6,0.030851441781221893
-0.48442790664053526,0.06799999999999362
-0.46912612948286403,0.0759999999999929
-0.48,0.0701716364255712
-0.648,0.024283149492722728
-0.46179785005841023,0.08399999999999215
-0.6719999999999999,0.022048373899353116
-0.45752634365297284,0.09199999999999127
-0.6983267758358067,0.01999999999999824
-0.7200000000000001,0.018568543491924265
-0.696,0.020163576907791476
-0.45975584858684576,0.09999999999999082
-0.744,0.01717649924517298
-0.4564631808857601,0.12166666666665746
-0.768,0.015934247797286395
-0.45600000000000257,0.12192400208807133
-0.792,0.0148208903516973
-0.8160000000000001,0.013814829148229194
-0.8400000000000003,0.012923621891356867
-0.8656205037770974,0.011999999999999206
-0.8880000000000003,0.011305166030606894
-0.8640000000000003,0.012052407875659817
-0.9120000000000001,0.010652154480103548
-0.9360000000000002,0.010103362587585783
-0.9600000000000002,0.009608340242534746
-0.9840000000000002,0.009089735494220347
-1.008,0.00868218845233793
-1.032,0.008327600479757929
-1.0560000000000003,0.008019378745361912
-1.08,0.007727922010244241
-1.104,0.0073991565856915305
-1.1280000000000001,0.007055856512025461
-1.1520000000000001,0.006690996368624333
-1.1760000000000002,0.00654493495358171
-1.2000000000000002,0.005777817211035249
-1.4784951827469375,0.004000000000000186
-1.6600000000000001,0.003153596433547981
-1.43,0.004236347089961951
-1.8900000000000001,0.0026425790039591008
-2.12,0.0022818091736015425
-2.35,0.0019853787520668943
-2.58,0.0017867357800842177
-2.81,0.001652047102670088
-3.04,0.001555274707638115
-3.2700000000000005,0.0015025587081001174
-3.5,0.0014922287913257397
-0.3558847310152172,-0.01654132891694311
-0.3585128171630048,-0.014117730475325413
-0.3546093846292453,-0.017907733810257037
-0.3619102947052839,-0.008724345670628915
-0.3595962239675801,-0.01263231767692675
-0.3522995705341031,-0.020450246206151327
-0.3624146171618567,-0.008132513062731911
-0.36509894944239407,-0.004815723254469068
-0.3508951686073848,-0.022404416170644013
-0.3490691505001084,-0.024358899682279674
-0.35070663294656484,-0.022613254399308464
-0.3467425641026723,-0.026313755456130444
-0.346803089418651,-0.026254007679501458
-0.36631744368081953,-0.0035276222699100776
-0.36864969955306115,-9.068315555354764E-4
-0.34875499264843357,-0.024610408651142363
-0.34485125622035934,-0.02799177565731948
-0.34455647121396504,-0.028268506747874
-0.34245238707896897,-0.030223197051421864
-0.34289947178784463,-0.029795117318913537
-0.3702204515741311,8.333806108152289E-4
-0.3721929532456274,0.003002054568471936
-0.3409477121701507,-0.031631826621161194
-0.34036464145604295,-0.03217787520435515
-0.33827520067826333,-0.03413255461794502
-0.338995948283061,-0.03346279500996986
-0.3741228766537141,0.005978073282148619
-0.33704415705040475,-0.035256992751698225
-0.33610543517428526,-0.03608729376735746
-0.3338625494984043,-0.03804208729472209
-0.3350923266238246,-0.03699848773875059
-0.3747195074441442,0.006910184594269584
-0.33314043981529207,-0.03866416787481968
-0.3314320954676911,-0.03999702031274856
-0.37749979390543803,0.01081850331547712
-0.33118845726487034,-0.040201107148689144
-0.32923643278625947,-0.041681666986374835
-0.3289135713963911,-0.041952018826635774
-0.3264723677617626,-0.04390695983892413
-0.32728446676522754,-0.04324083275545883
-0.3780250511814367,0.011459674494225119
-0.3800421190856912,0.014726645069816937
-0.3211829396106759,-0.04781714455642821
-0.32142835358512584,-0.04762906954465854
-0.32533253542337776,-0.04484663043985232
-0.32398181421295036,-0.04586193755170659
-0.32338051286474073,-0.04632977200263317
-0.38081181823110055,0.018633468559176355
-0.31947627476538837,-0.049036558727144894
-0.3184562117563951,-0.04977229790711399
-0.31546325907524553,-0.051727649243670265
-0.31557196799482434,-0.05165100561320952
-0.38192447074860286,0.020645777304564124
-0.3832059940611181,0.02254150013794435
-0.30273680849035484,-0.05867919274156237
-0.30184721920876195,-0.0592602803577001
-0.3049581578403038,-0.057751622232237884
-0.3049363264333501,-0.057776981844797924
-0.29940761752274986,-0.06028286463864022
-0.3011578340010648,-0.05965378871397296
-0.3175241990047489,-0.05044816138837042
-0.31361977415978304,-0.052903837642388894
-0.31237502927694505,-0.05368307143580737
-0.3858268705068589,0.0258245186790103
-0.38632082891668473,0.02645006765579852
-0.29378518266733333,-0.062383891941012654
-0.2955667566749273,-0.061720178319050426
-0.29168082156832387,-0.06316033415878312
-0.28967721905330945,-0.06389814846082228
-0.2877794886044868,-0.06459466026639087
-0.2858288101548154,-0.06531223880051532
-0.2838904285964143,-0.06602663071449244
-0.2819290345235662,-0.0667517472933135
-0.27998038797628455,-0.0674749043680057
-0.3049990815425783,-0.05772868974527065
-0.3058104453268249,-0.05717090287114648
-0.30551821986641425,-0.0575944217820701
-0.29747890351899015,-0.06101250791039184
-0.3116675668573108,-0.05413856048463535
-0.38938437365556555,0.034264848110427036
-0.3971315055329625,0.04989561381139669
-0.39752671737232814,0.05124727712311318
-0.4011510398139808,0.06552360737581318
-0.39936517825187007,0.05770977710751678
-0.26041868676771807,-0.07450024396862064
-0.25846231503680556,-0.0752022252887358
-0.256586871280299,-0.07586383034573475
-0.27811045927297956,-0.0681606979757263
-0.2605878772666619,-0.07443943916607543
-0.30971522361260306,-0.05519048643053443
-0.3089406010927487,-0.055638751088472105
-0.30776292062220834,-0.05629654097578289
-0.3897263953942998,0.034869000914673424
-0.3935826555858277,0.042080472445420194
-0.40402860529927004,0.0733382495215433
-0.2545335835592038,-0.07656236265379658
-0.2525744161621896,-0.07725668068176751
-0.2507839279381913,-0.07790484525663902
-0.2760729947234525,-0.06889353264184694
-0.2741154242835123,-0.06959222814125357
-0.27231480147489506,-0.07022343852736387
-0.2701954515474279,-0.07097637438034653
-0.26818816993444583,-0.07169699006636437
-0.2643267534455206,-0.07308346164207993
-0.26238779850206545,-0.07378795280983129
-0.40532103758686816,0.07569592027449673
-0.23114697968423556,-0.08496910511138475
-0.23106132329761797,-0.08499765264924948
-0.2292534722014536,-0.08558728179908348
-0.22712996155340454,-0.08635058010411159
-0.22513279518889487,-0.08708299122541618
-0.23692795241706155,-0.08288489403176809
-0.23506301677879426,-0.08356618899099813
-0.24866766754674716,-0.07867707599223649
-0.24666334604151313,-0.07939784564978211
-0.23888129268575078,-0.082174603071003
-0.2662824704993524,-0.07237968576511014
-0.40836247780968354,0.08115397469241917
-0.41719619047992396,0.09678554846085563
-0.42092690049560133,0.1014347248387265
-0.43003779886884874,0.11242010281772306
-0.43653897794843816,0.11881704363450718
-0.45016168019659974,0.12806007284902865
-0.4521559062381095,0.1296766073948589
-0.20953642273948161,-0.09270625816024394
-0.20774468414271302,-0.09332899135720656
-0.20561563016418988,-0.09408815711116537
-0.20361678355606377,-0.09480797882775466
-0.21541492717006921,-0.0906260513481778
-0.21355519645999735,-0.09131245479304365
-0.20976676260878402,-0.09262838149740868
-0.22322707741200729,-0.08778156845140186
-0.22127271532390713,-0.08848905846944119
-0.21933707671380728,-0.08918591830050457
-0.2173645115397192,-0.08990546496915854
-0.23302259948690887,-0.08430911510109375
-0.2447513843410959,-0.08007133572437444
-0.24279399678186417,-0.08077053252410549
-0.24085452127261142,-0.0814652464142089
-0.4633584277884814,0.12806988699485664
-0.18415044378674394,-0.10196044712419133
-0.1830122414683621,-0.10238876951692767
-0.19000262284080247,-0.09980807895781527
-0.18805094716944915,-0.1005229328010377
-0.18627413091425854,-0.1011753807997727
-0.20171028282734485,-0.09551239351252101
-0.19976197631231218,-0.09623648266079513
-0.19783395272401094,-0.09694582302810932
-0.19390698680930074,-0.0983811470132024
-0.19204773788948196,-0.09905966597912531
-0.21150713495377862,-0.09204358601015525
-0.4639542858268638,0.11244532580140315
-0.17242072668180236,-0.10619567107776602
-0.17438790415929808,-0.10552330974452277
-0.170558685895759,-0.10685728420123314
-0.182171456267881,-0.10272670943927661
-0.1958589422515986,-0.0976670600593001
-0.46097410111068393,0.09681810517955994
-0.4634967763930732,0.08119497691988012
-0.4678206260163458,0.07627258444547691
-0.16851889118570573,-0.10762953390112814
-0.16720754753159017,-0.10815452194967426
-0.13915484547157425,-0.11821887032895931
-0.14019586387803673,-0.11785261780642453
-0.1749445604510103,-0.10533196168746227
-0.1783225859862521,-0.10417948307753644
-0.17638787454658106,-0.1048620755751393
-0.18027315057638327,-0.10346158361308966
-0.4715044758767881,0.07338842991859294
-0.1432097922183413,-0.11681481725661733
-0.14115162352939087,-0.11751740345298642
-0.16648491677268204,-0.10843427684665435
-0.16269986636300043,-0.10987278222000199
-0.16070080966249614,-0.11057602399793752
-0.137232914987016,-0.11890501501500457
-0.1352780160968309,-0.11961103358718907
-0.13457464893484586,-0.11987943075134969
-0.1347372997940223,-0.11984397108872324
-0.47563709794916975,0.07093456656742977
-0.14322890168761007,-0.11680857053705203
-0.14566638651965935,-0.11601301019409793
-0.1450006265148044,-0.11624642957374123
-0.15097758144292933,-0.1141283787796496
-0.1491282302811987,-0.11481547334975256
-0.15878638046751728,-0.11127470975094245
-0.15683092792765174,-0.11197921069582598
-0.15490562913429623,-0.11267916598501612
-0.16473357238763528,-0.10911019515945292
-0.11379520764097562,-0.12743501914224592
-0.115432476692285,-0.12684498607103664
-0.112987929315528,-0.1277367879016255
-0.1176683806250177,-0.12606273105236207
-0.1180707278846519,-0.12592414751711672
-0.13529745078661998,-0.11966430665370674
-0.13545850587176358,-0.11961668212611748
-0.13553706415296946,-0.1196146502469781
-0.48255054680828513,0.0655841424907471
-0.14707477500863086,-0.11555958013241548
-0.15292719969123014,-0.11340788526652965
-0.11575097558877884,-0.1267313827724014
-0.11317680816807073,-0.12769336900602635
-0.11306926819073823,-0.12774244884903524
-0.1129282730609978,-0.12780018013935754
-0.11968461256648769,-0.12538469203483596
-0.1353382796921751,-0.11977622410777118
-0.13525277253947854,-0.11981202840857676
-0.48345421225754853,0.06473276818387612
-0.1138194694036957,-0.12750152385691582
-0.11467461960461506,-0.12722553413308263
-0.12010666207088086,-0.12524385627268467
-0.12561512373149802,-0.12344704259071357
-0.12618531459391222,-0.12326044933239483
-0.1334500197589105,-0.12056924573494948
-0.12954946560945438,-0.12210228407832216
-0.12769531589597735,-0.12276687137007328
-0.49126930337574126,0.06125148469603277
-0.11580382971054176,-0.12687626294158968
-0.12175570758029526,-0.12471048495975874
-0.1224381686499515,-0.1244869581380942
-0.12354294425457943,-0.12413151058516422
-0.11634014119667105,-0.12671159575300148
-0.13267909406630785,-0.12089143637076763
-0.13149310472466294,-0.12136540096708354
-0.0982270815815109,-0.13327796649557383
-0.09636293169421263,-0.13399953468743575
-0.104815547386294,-0.1309159134743463
-0.10409152988551551,-0.13115922997324153
-0.10732300574283292,-0.1301416583947703
-0.10617586449812691,-0.13048100676734822
-0.10203300240169895,-0.131873333189818
-0.1002657827854748,-0.13250791093977388
-0.11733791217593012,-0.12648809374102976
-0.09625820240335148,-0.13403982665840342
-0.1080677600190989,-0.12992929273421805
-0.0060267270914903266,-0.1666907767985923
-0.00452042979076658,-0.16723864803120547
-6.336297326377233E-5,-0.16886080553159663
-7.891435574531788E-4,-0.16859603158635678
-0.10982242990420164,-0.12944058302773426
-0.11596925896494936,-0.1271981419685943
-0.09046321912702107,-0.13614215187754206
-0.09094264896484726,-0.13597692244692106
-0.08846502731575377,-0.13684215955678522
-0.08721021542217346,-0.13733856145522924
-0.09434470896069216,-0.1347651796456174
-0.09239218806937091,-0.13547771662863148
0.007897975126238885,-0.16656469278942046
0.00835863197863702,-0.16639790426305828
0.006018902940566168,-0.16724555046943085
-0.002595264188689828,-0.16793852727544206
-0.006398101941454991,-0.16655599969310853
-8.413197782006444E-4,-0.168577116684293
7.469814497643435E-4,-0.16915873758576727
-0.012242627949850756,-0.1644277125312293
-0.013237880824659471,-0.1640682796137291
-0.010269708756195777,-0.1651444454797621
-0.008339955382014125,-0.1658484830604809
0.10556926156277069,-0.13111518106537218
0.10490226853873577,-0.13136072740356186
0.10837152307936129,-0.13010094302263853
0.10762846736464123,-0.1303680862173345
-0.11592803011697149,-0.12721671275505403
-0.11400431085997736,-0.1280081988439284
-0.11208740550914484,-0.12871421324536514
-0.11007678272437235,-0.12937163472925214
-0.08654231835842,-0.13763641501122936
-0.08618644261792574,-0.13785254420787507
-0.07362362566325992,-0.14229512140310377
-0.07284704439416709,-0.14254844262777716
-0.07660511651527735,-0.14134793326800557
-0.07479462457799996,-0.1419084650401122
-0.07088043295436429,-0.14322235554552576
-0.07011099831708809,-0.14357657232820845
-0.07041640797349924,-0.14345251676140572
-0.07037521214778465,-0.14344131932790583
0.013747016707198396,-0.16445615849403233
0.015805844784738746,-0.1637135906874785
0.009840677410877442,-0.16586387165664926
0.011490063720179855,-0.16526901142703077
0.011772556620116255,-0.16516761785965478
0.004092837454444928,-0.16794490446684399
0.002867316882811571,-0.1683919559846509
0.0021162580931538898,-0.16866468665960396
-0.014301357836883178,-0.1636846299875236
0.01592611741403505,-0.16367048275597923
0.019036428153970948,-0.16255953272578189
0.01757535161650277,-0.16308237566587466
0.054755324112461035,-0.1495864192727472
0.055273569179550675,-0.14940080258959168
0.053869231790985295,-0.14991075718846758
0.10401932995674684,-0.1316998390701729
0.10947945350739906,-0.12970427448557648
-0.08533742320065114,-0.13837302344903524
-0.07681168699749216,-0.14128674242897002
-0.06905533620151419,-0.14410218870533778
-0.07021171034466742,-0.14357917059393616
-0.06513321948082526,-0.1456624483122674
-0.06328446148668655,-0.14631342661955946
-0.015038103987057112,-0.16342386989718832
-0.016136764581735828,-0.16304156632894556
-0.016074529535716343,-0.16306337355486877
0.002337704476374312,-0.16858548713866123
0.019618030035155165,-0.1623561324510091
0.056738525207952764,-0.14888001598225536
0.058171827228997726,-0.1483761007409594
0.05556564193399115,-0.14932248028445347
0.054758624099255276,-0.14959550693404575
0.10449338056336938,-0.13155543546336904
0.08690712221411886,-0.13798310929015856
0.08616809496720101,-0.1382443763920136
0.1106865209544123,-0.1292787935731769
-0.08483615521156374,-0.13868778403859544
-0.08282327175526658,-0.1395713264728021
-0.078921926961828,-0.1407057322939735
-0.07900795697704814,-0.14068209285730404
-0.08076236447829212,-0.14027111158211408
-0.06903685954018601,-0.14411233441333637
-0.06707824781873348,-0.1449293732450121
-0.06121300344744617,-0.1470459276411714
-0.017001581181833585,-0.16275382287293952
0.020208556274572367,-0.16216163744299011
0.05879991285888126,-0.14815816020682032
0.05697661227501016,-0.14885172342404634
0.0567551652295451,-0.14892584006871573
0.1055952232098806,-0.1311866754895465
0.0856931204109705,-0.13842394765820681
0.0880175832245365,-0.1375859405746679
0.1114428761252956,-0.12902175151010176
0.1119281910331379,-0.12885564563956972
0.10692833447283238,-0.1307128412267317
-0.05918414403054716,-0.14782575718416197
-0.017527263747278605,-0.16260367610017656
0.02077192266286701,-0.1619986695351269
0.060276125156193655,-0.147653577037356
0.060577924707579084,-0.14755183680184408
0.06263292063290013,-0.1468438137587704
0.05830079272069383,-0.1484332856032104
0.09774147675407965,-0.13401116222166265
0.09967337159300713,-0.13334732330727395
0.0958177592990834,-0.13470847816946654
0.0953976143347844,-0.13489997162047093
0.09530068937563636,-0.13491821622000466
0.0951589851766776,-0.1349566680386459
0.09544396744207254,-0.13484988195970632
0.08995808585281756,-0.13693762768504214
0.08546529375773329,-0.1385690874818981
0.08691111558124953,-0.13813768300185852
0.08620232570995132,-0.13833864264681536
0.07718780724057668,-0.14157487679643055
0.07825074351585894,-0.14113700068998647
0.11236716952076937,-0.12873784649411665
0.10766274108588003,-0.1304624708283668
0.10952168671626708,-0.12982057831391527
0.18379602337182746,-0.10308696663879986
0.18450387301304888,-0.10283941578905584
0.2152672889161122,-0.09166834995784967
0.2151879562456894,-0.09169530816866568
0.20940751914039432,-0.09379426469498045
0.2111822943958391,-0.09312493745278519
0.21313839561434797,-0.09242225245790736
0.36121791688221394,-0.013168372113558181
0.3602370792310201,-0.014524297736737133
0.35834124058689987,-0.017072483869575186
0.35386448189201297,-0.020975405677703604
0.35632735834656626,-0.01919002536236549
0.35234848928306806,-0.02292740380571929
0.35241840373884703,-0.02282536678968213
0.3635155200272327,-0.009263829712909927
-0.05822936712641209,-0.14826238548808318
-0.01803112241257868,-0.16248230540334904
0.021091120423484898,-0.16192769466704643
0.021065587404155935,-0.16195444109393548
0.06355472497961076,-0.1465254342995093
0.06471536460369726,-0.14614165414698455
0.06599341521603735,-0.1457334912356817
0.05884825500069963,-0.1482912871065645
0.10250922005421342,-0.1323799561032697
0.10180062532957704,-0.1326209574047316
0.10493119487370817,-0.13159408287976976
0.10358165283260694,-0.1320244398428673
