"Plane Section: Position[X] (m)","Plane Section: Position[Y] (m)"
3.5000000000000004,0.0023320991736978536
3.27,0.0023485825076781665
3.04,0.0024367048434393904
2.8100000000000005,0.0025727243239423584
2.58,0.002755372959531051
2.35,0.003036447081043137
2.1200000000000006,0.0034693355414230024
1.9353131651849873,0.003999999999999809
1.8900000000000003,0.004133940775766419
1.6600000000000006,0.0051073012845284085
1.4300000000000004,0.006878811642496695
1.2000000000000006,0.009190410865949978
1.1760000000000002,0.010184339734302624
1.1520000000000006,0.010361196321323433
1.1280000000000003,0.011153568567074173
1.1040000000000003,0.011974615980787015
1.1031826912611589,0.011999999999999893
1.0800000000000005,0.01270187538947569
1.056000000000001,0.013459764506966098
1.0320000000000005,0.014141795478515422
1.0080000000000005,0.014756655018717008
0.9840000000000007,0.015434927841022142
0.9600000000000005,0.01629503903810584
0.9360000000000004,0.017195211069664665
0.9120000000000006,0.01815776610612002
0.8880000000000003,0.019283627080987603
0.8745670734438378,0.019999999999999428
0.8640000000000005,0.02057289778329167
0.8400000000000004,0.021917030013390737
0.8160000000000003,0.02338757145859713
0.7920000000000007,0.02505217722527993
0.7680000000000008,0.026911237805488285
0.7562727575752515,0.02799999999999893
0.744000000000001,0.029148079111016505
0.7200000000000009,0.03155421895014915
0.6960000000000008,0.03422595826907688
0.6841071595066056,0.03599999999999823
0.6720000000000008,0.03784188794482192
0.6480000000000009,0.04192302411132959
0.6390205411986406,0.043999999999998006
0.6240000000000006,0.04745180070313486
0.6090625332634614,0.05199999999999709
0.6000000000000004,0.05505522078390517
0.5868701007969924,0.059999999999996584
0.5760000000000003,0.06456315459689663
0.5676877390475812,0.06799999999999562
0.5520000000000007,0.07540847672635093
0.5505853605651312,0.07599999999999511
0.5367731344048241,0.08399999999999458
0.5286046379052167,0.09199999999999398
0.5279999999999996,0.09239124246083211
0.5165320194287788,0.09999999999999301
0.5058149244753758,0.12166666666665975
0.5111215670809421,0.1433333333333264
0.515093041368198,0.1649999999999933
0.4702463675014994,0.14333333333332593
0.45599999999999896,0.12668132889918657
0.49761179276512557,0.16499999999999304
0.4799999999999979,0.15308520452099034
0.5039999999999972,0.16966995721855876
0.4521287371631437,0.1216666666666589
-0.43395474102779896,0.07599999999999238
-0.43199999999999994,0.07254258026092063
-0.43781223082075693,0.0839999999999918
-0.4406785863347131,0.09199999999999131
-0.441351297751521,0.09999999999999051
-0.6392837967358196,0.043999999999996445
-0.6479999999999998,0.04191860860393967
-0.6093605116787414,0.0519999999999958
-0.6239999999999999,0.04758012344323651
-0.5870391689364163,0.059999999999995175
-0.6,0.05513152578290763
-0.5683034799706821,0.06799999999999426
-0.5759999999999998,0.06474547196982125
-0.44933090598718506,0.1216666666666574
-0.6843284488070613,0.0359999999999973
-0.6960000000000001,0.03430054920151286
-0.6719999999999998,0.03781357570841219
-0.5520819483736913,0.07599999999999357
-0.5368495540374071,0.08399999999999275
-0.552,0.07603642085194001
-0.5266399052470665,0.09199999999999228
-0.5280000000000004,0.09096395109164444
-0.4560000000000036,0.13196852739922205
-0.72,0.03157156166422643
-0.5141448741757173,0.09999999999999143
-0.5037982585799142,0.12166666666665787
-0.5040000000000027,0.12128651978145497
-0.46409089333502296,0.1433333333333245
-0.7566024238230722,0.02799999999999797
-0.7679999999999999,0.026959367388494963
-0.744,0.029159159607002633
-0.5040000000000029,0.12226173908511984
-0.4800000000000071,0.15866935249766978
-0.7919999999999998,0.025080715121219604
-0.5109393439087272,0.14333333333332482
-0.49567761320432346,0.16499999999999154
-0.8159999999999998,0.023411160550077324
-0.5127590027782762,0.1649999999999918
-0.5040000000000087,0.1686593173606179
-0.8400000000000001,0.02196941205036749
-0.8759116049707328,0.019999999999998883
-0.8879999999999999,0.01938010893442499
-0.864,0.02061694494060083
-0.9119999999999999,0.01822225764495837
-0.9360000000000002,0.017216594811647428
-0.9600000000000001,0.016312809715397433
-0.9840000000000002,0.015558811498339091
-1.008,0.015149854777467773
-1.032,0.014563646969495773
-1.0560000000000003,0.013648042896122172
-1.0992507234174411,0.011999999999999775
-1.1040000000000005,0.011829111387406333
-1.0800000000000005,0.0126837562426859
-1.1280000000000001,0.011109282001250838
-1.1520000000000001,0.01052771774529352
-1.1760000000000002,0.010319307184213752
-1.2000000000000002,0.009095351066716783
-1.4300000000000002,0.006792368806605768
-1.6600000000000001,0.005109998017781465
-1.9352644318757752,0.004000000000000134
-2.12,0.0034686789845086623
-1.8900000000000001,0.004133868171585793
-2.3499999999999996,0.0030271689273800714
-2.58,0.002757593045298932
-2.81,0.002561144713419635
-3.04,0.0024272418828898638
-3.2700000000000005,0.002351354110865676
-3.5,0.0023319496865437193
-0.35589287583661244,-0.05222489098201452
-0.3584590841962422,-0.050085144253094946
-0.35455498524139595,-0.05356973531288608
-0.36236286575712684,-0.04608656799253532
-0.3602158016506628,-0.04831597076247032
-0.3639693427421623,-0.04440740214694547
-0.35205911670458956,-0.05613350913343851
-0.3500402223295363,-0.058087881204900924
-0.35065116339052627,-0.05750306629900773
-0.3662665587123132,-0.04194450437955406
-0.3676255582276259,-0.040498893631521676
-0.34869909864229265,-0.05922063240437997
-0.3478459461990752,-0.06004236157735365
-0.34582503150617816,-0.061996734896402214
-0.3467471323559419,-0.061097646888574754
-0.37016951625298267,-0.036611516478155255
-0.3701833306092913,-0.03659106342202406
-0.3447951801817496,-0.06299751447268007
-0.34380384008662773,-0.06395110838632123
-0.3417893255782277,-0.06590547775314494
-0.34284321866807177,-0.06488225777955031
-0.372723645735748,-0.03268324399265576
-0.34089126113946877,-0.06677345448265617
-0.33973670819377055,-0.06785987064908798
-0.337582755677463,-0.06981432612108514
-0.33893927216351816,-0.06861372559615266
-0.3349692698801482,-0.07176906536211958
-0.3350349380324979,-0.07171747424741493
-0.37407244525065486,-0.031232306249549435
-0.3324153052850538,-0.07372376784787482
-0.3330826827975177,-0.07312656768911086
-0.3369872158322591,-0.07034492208184642
-0.37631673978066915,-0.028774774455722674
-0.3311306292323062,-0.07486224350960176
-0.3302467810082769,-0.07567823231815482
-0.3779760713022031,-0.026981899421232462
-0.37993669327705604,-0.024866288332641925
-0.32917861721283453,-0.07666519812067982
-0.32811691345636307,-0.07763267291730333
-0.3257287098112032,-0.07958727304306275
-0.32722658824805095,-0.07844071165745758
-0.3229135279393811,-0.08154213683459788
-0.32332205092012295,-0.08121540490016349
-0.3818794972457641,-0.022407439365130268
-0.3830164841330787,-0.02095813576852007
-0.3009428776456044,-0.09510144435211454
-0.2992266945924328,-0.09571374355568892
-0.320479772576195,-0.08349676508925818
-0.3213698577955195,-0.0827250793645278
-0.3252743927856443,-0.07994660029158623
-0.38523243007452157,-0.017050516642241387
-0.2954161408838333,-0.09715449146653964
-0.29363283169660964,-0.0978079289470011
-0.2915280102795133,-0.09858176723159921
-0.2895225853163668,-0.09931442434507591
-0.28761857658721923,-0.09999370477762907
-0.285658132221256,-0.10068450331476328
-0.28370989566775306,-0.10137187318571303
-0.28173905219638534,-0.10207108091556744
-0.27978442072551085,-0.10277783038057568
-0.3026099497605966,-0.0943087084924479
-0.2973200090234714,-0.09644643151422096
-0.31941777235421864,-0.08440913527577176
-0.3179293469276476,-0.08545146538964984
-0.3149042991801097,-0.08740645877669323
-0.31551308704055037,-0.08694418163056136
-0.38578198351938014,-0.016311285431605413
-0.38857938911341394,-0.013142199097553493
-0.2779177771924507,-0.10347263390485023
-0.30353930793389783,-0.09397686466435888
-0.30481804134918866,-0.0934232420470032
-0.30475278380144394,-0.09347612022314894
-0.3174654971160065,-0.08578583562725767
-0.3135608532829328,-0.08838805530959093
-0.3120187857905156,-0.08936136599904695
-0.38968543196709815,-0.01177326840715447
-0.2602549842794435,-0.1098916087264021
-0.2583050769862296,-0.11061131286607648
-0.25643754355078696,-0.11129460189805697
-0.2758871190782217,-0.10422412966010783
-0.273934342954384,-0.10493596687135236
-0.2721372318819344,-0.10557679832663172
-0.270022053961431,-0.106341167741478
-0.2680136609239082,-0.10705873168459337
-0.2641562835653911,-0.10845627180095224
-0.26221942920594343,-0.1091665222626494
-0.3048955072332116,-0.09337812950505588
-0.30575102398413234,-0.09271537919833864
-0.30537524069151856,-0.09327171923759053
-0.31160849581375816,-0.08963159151488688
-0.3915445467432159,-0.009234117321245185
-0.23494487350733756,-0.11908242349533285
-0.23681174586123319,-0.11840643903964963
-0.23706710488687818,-0.1183146684703243
-0.25440132341325117,-0.11203991962760422
-0.25244998337834446,-0.11275569489253147
-0.2506619605725058,-0.11341061845990555
-0.26610889581507957,-0.1077439852127901
-0.3096560293664813,-0.09069864946172589
-0.3086647815634448,-0.0913165625218852
-0.307703650481854,-0.09190750564524436
-0.3928959929306526,-0.006420782133953632
-0.3934035026804115,-0.005326718554604646
-0.3954310266226738,-0.0014192158691873028
-0.4101678724273169,0.022027388833774777
-0.41309981139722574,0.025675230646518603
-0.4495390682717024,0.12361422053090126
-0.4520990736564411,0.1280939742433463
-0.23290515889571975,-0.11982727605131108
-0.23095132364166562,-0.12053620890791256
-0.22916387652816056,-0.12118176587189478
-0.2270438152322847,-0.12195451912945729
-0.22504656884219834,-0.12268671217481099
-0.24855329728800632,-0.1142036821567671
-0.24655125541441075,-0.1149306994773791
-0.23877069400380746,-0.11771152678352048
-0.3974899664055407,0.0011285092572560277
-0.4016904615984197,0.006397150920030409
-0.40529547413695893,0.01245414421396896
-0.40633942424837466,0.014212523217205408
-0.4164736461474533,0.029843784237895
-0.4200609003649778,0.037658500913373624
-0.4427341280914944,0.10798501539414221
-0.4609558664077373,0.13924627356263827
-0.46771100998403553,0.14925400325207971
-0.2153210869102289,-0.12620889286846984
-0.21345710382265654,-0.12688363820889872
-0.22314156965618348,-0.1233872611310804
-0.22118877726314976,-0.12409905372884467
-0.21925304991481115,-0.12479566705666797
-0.21727728314197306,-0.1255064343022199
-0.24464167347694288,-0.11561070709354077
-0.24268501912035673,-0.1163119093864628
-0.2407461295310419,-0.11700822559937082
-0.4209010524101151,0.04391035488323227
-0.43530455334130225,0.076730421556712
-0.4365027343868966,0.08167619621855432
-0.4389730559856011,0.09235768989386679
-0.20903638617322653,-0.12853662259711432
-0.2094735384689331,-0.12837396530610715
-0.2114167331257801,-0.127635853725656
-0.4211204927698294,0.045471656717862984
-0.42767155625458764,0.06110070508176006
-0.20769997930180178,-0.12904653961734328
-0.20558035418372878,-0.12983155524619078
-0.2035810823337507,-0.13055020766479228
-0.18411073550843862,-0.13769170587368557
-0.18210657347687315,-0.13838894983082883
-0.1880350235068622,-0.1363194087644844
-0.18996940365234188,-0.1355571259662052
-0.18625332730345132,-0.13695847644516373
-0.20166874908274363,-0.1312386314899155
-0.1997160557282261,-0.13195069567184373
-0.19778757940125227,-0.13265879664988373
-0.19386192763041085,-0.1340977253270277
-0.19200515243970967,-0.1347830279005936
-0.16724461540159022,-0.14377681561778793
-0.16641242168916406,-0.1440756379241898
-0.16061265848261672,-0.14617446389919492
-0.16260212589807993,-0.14544493527249433
-0.17823872034767888,-0.13978968549345502
-0.17630836741944833,-0.14048422194965834
-0.17432888927067403,-0.14120162647874682
-0.17237595162954816,-0.14191302077613305
-0.1705188874074817,-0.14258827459838153
-0.18019222293038362,-0.13907984038302318
-0.19581337306880994,-0.13338223910036176
-0.15869731625822353,-0.14687064607964462
-0.15673910129567006,-0.14756756886742403
-0.15480632879124925,-0.1482470289022475
-0.16846932665261033,-0.1433337535526001
-0.16464420149915193,-0.1447052921263308
-0.15397043907809968,-0.14861750567770526
-0.15422486292436857,-0.14848335378205868
-0.1544107983997394,-0.14838829301977804
-0.14907895225173196,-0.15052051787357132
-0.15093366637937797,-0.14984812532277153
-0.1449738023079347,-0.152013021343355
-0.14702674025522317,-0.15126803229112998
-0.14320646929880493,-0.15264582509062105
-0.14116153510562862,-0.1533846863735627
-0.15288123672892365,-0.1491220127989934
-0.1391772615153285,-0.154120433806597
-0.1280662025745146,-0.15820448715664243
-0.1276049552234412,-0.158359305102683
-0.12555049562042225,-0.15911001316376963
-0.1372599069172294,-0.1548191213802731
-0.13530372707189744,-0.15552162488143448
-0.13350999354087312,-0.15621930147150814
-0.12947206295591035,-0.15773025543267305
-0.11275442065360086,-0.1636477392556431
-0.11186970340336141,-0.16395753840824034
-0.11012824515130892,-0.1646054259203212
-0.12412207735273677,-0.1596427901662335
-0.11769229215150462,-0.1619683978275417
-0.11867896641079144,-0.16162772786704652
-0.13339651920146717,-0.1562627234179321
-0.13143213147331928,-0.15703841547662356
-0.10794344752008099,-0.1654286247098851
-0.10610090919653023,-0.166115638553218
-0.11576371078983891,-0.16260639112326522
-0.11379720292569691,-0.16328057305538501
-0.10988822922563007,-0.16469486514603865
-0.12350769449316769,-0.15987501800344198
-0.11971222966178818,-0.16130054009351125
-0.09820422923965204,-0.16905544001276498
-0.09781820263105592,-0.1692350165914147
-0.10404415648549126,-0.16686946867695196
-0.1019937783532158,-0.16760590639934356
-0.10022975153396177,-0.16824923600100877
-0.002820877024898835,-0.2034671544397048
-0.002521547789204476,-0.20357615561050296
-0.0063241662032248284,-0.2021932634742059
-0.004446508151435505,-0.2028758554327493
-7.677931292474878E-4,-0.20421519143010336
5.147989517931778E-4,-0.2046835744380997
-0.008266316676087255,-0.20148660752381647
-0.010147948525127638,-0.2008006751244662
-0.12175750765288625,-0.1605555654831611
-0.09674834867363294,-0.1698358964378236
-0.01708337468836301,-0.19827975787240903
-0.015990777649416543,-0.1986737858493313
0.013817167272848296,-0.20008562955600587
0.01510508968255268,-0.19961953688391
0.00991213037547263,-0.20149690021574945
0.0108124795055433,-0.20117069906324353
0.011843341050415653,-0.20079882725086662
0.007970548511714233,-0.20220079681633157
0.006091865647391444,-0.2028827206982659
8.204478563101035E-4,-0.20479611661536026
-0.012168292257434758,-0.20006393394748329
-0.014224671380978436,-0.1993144082186015
-0.010196266780783064,-0.20078311624138787
0.017642543748086232,-0.1987036992190791
0.01968168392934244,-0.1979677106731818
0.11540602148821932,-0.1631929583502017
0.11611190865850274,-0.16293900998275668
0.11348514121478656,-0.16388806136980047
-0.082587907619113,-0.17476628209262446
-0.08313087573750512,-0.17459103986303995
-0.08190051670318017,-0.17503971453801692
-0.09631607335074308,-0.170038675300817
-0.019583609850156756,-0.19738033175076708
-0.018029977470824913,-0.1979379412460457
-0.02077981627108851,-0.19696261237267865
-0.02010554715222288,-0.1971974982129584
0.015875379249793015,-0.19934136581313014
0.004166015401956789,-0.20358263314129457
0.0026163816794685583,-0.2041481042962865
0.002378239333111139,-0.20423461452144345
0.020058380879740392,-0.19783247786002783
0.021756509658878702,-0.19722527030730835
0.022377796957960258,-0.19700839365666692
0.11736595968700635,-0.16250083296243575
0.11149818187443106,-0.16461034356535048
0.110105347668946,-0.16512101982442412
0.11747151748198288,-0.16246359598867285
-0.08649572809473076,-0.17357471663389115
-0.08467626475679452,-0.17408965246944602
-0.08056636942809858,-0.17557400743908802
-0.09442730960803265,-0.17083185174015647
-0.09247447963523897,-0.1715435412864488
-0.021585177094371223,-0.1966966729831962
0.002410919493762584,-0.20422291510231624
0.02360254412116588,-0.19658616822771097
0.023910775675308655,-0.19647924567506092
0.11736717794159734,-0.16250418653128823
0.11552532716026712,-0.16319832946890575
0.10994686932602514,-0.16519708298063934
0.11755607849030296,-0.16243565369351542
0.1174983880372389,-0.16245483362838667
-0.09055686476943561,-0.17223909822695344
-0.08657122164379621,-0.17355584658636963
-0.08856225693299509,-0.1729489239394547
-0.07919742507054496,-0.17623618669743124
-0.07683783129969611,-0.17719864329906607
-0.07489716201244723,-0.1780298122853352
-0.021960208805569557,-0.19658194257251294
-0.02241515553610182,-0.19643563194895752
0.025411442007797023,-0.19597570526727426
0.11542536685742352,-0.1632462116094646
0.11351228506942546,-0.1639627820284428
0.11115014467257811,-0.1647877066955567
0.26052692081957124,-0.11086151238497988
0.26203554984068705,-0.11027649212335025
-0.07886006530852874,-0.176376367862104
-0.0730003183736166,-0.1788088956491816
-0.07293727043165207,-0.17883518025551834
-0.06525218231460769,-0.1818289170030494
-0.06347467903276559,-0.1826752824312985
-0.02321449876975394,-0.19620657612985903
0.025574784833276656,-0.19592790877057628
0.027099786892675056,-0.1954247907996048
0.11152130383187195,-0.16467399288532145
0.11440046221219784,-0.16371098100676856
0.11352280796956005,-0.1639917491018123
0.11058521252851358,-0.16500675689291472
0.1095810343847872,-0.16542026172845004
0.10815411466265032,-0.16593198494890746
0.10897871228920664,-0.1656805459061558
0.1838621897414026,-0.13870533600954488
0.1846393908561901,-0.13842925664470168
0.20946591451068516,-0.1293912390698772
0.21120307990332787,-0.12877943688380206
0.20612837189057004,-0.13062293149689566
0.20734226768362019,-0.13016522988396095
0.2659477356856795,-0.10887107106222843
0.26400011472424834,-0.10955170158776514
0.26009694736098826,-0.11102734973630127
0.2582383623887342,-0.1117352838950699
0.24921624198394765,-0.11497035479551215
0.24832051104930652,-0.11528462381061995
0.2464138916795811,-0.11597273561590823
0.24491107611098495,-0.11653429701156522
0.23862558267410203,-0.11888284984123286
0.24058031000493965,-0.1181763801575022
0.23675376653015925,-0.11954521330199955
0.36135637187719355,-0.048761552950818736
0.3602911764178815,-0.04988501660175863
0.35770584482740553,-0.052665549437571915
0.35318621477004564,-0.056569009239534646
0.35638237957209395,-0.054008151921906444
0.3511644246489632,-0.05852088612465117
0.35247419615902964,-0.057137899313635464
0.3642001928829938,-0.04540623151171422
0.36468773940902155,-0.044857359378023307
-0.07106241949661041,-0.17956152935603362
-0.06915994008816287,-0.1802900510372987
-0.06717650503188534,-0.18103905465125858
-0.06218351765103677,-0.183230905338521
-0.02386393980556504,-0.1960634053260596
-0.04370981597708014,-0.18948957845659803
-0.04186562886842998,-0.1901435010510117
0.029526298065982202,-0.19463074677407147
0.027596434517964664,-0.19526679113829365
0.07247360090972702,-0.17893233625316346
0.07306136864907144,-0.17872827778565198
0.07121560698510582,-0.17939878960150146
0.09258077793351023,-0.1717310596556414
0.09207251442161878,-0.17189670997522902
0.0900779839780699,-0.17260669383107086
0.08825487856576736,-0.17321598197374466
0.08941900797797755,-0.17287963921257532
0.11743524070948336,-0.1626915473506311
0.11546687594341379,-0.16336047637716342
0.11153474141489415,-0.16471098339633042
0.10959743348815808,-0.1654654046096369
0.12136204981319229,-0.16132638068734043
0.12341558310682703,-0.16060412910265354
0.11772402083549995,-0.1625972468867134
0.11935461634035804,-0.16202843021473534
0.14873995845525678,-0.15146808406805587
0.1466794001913204,-0.1521920886344295
0.14407057220230524,-0.153166734832587
0.14491388038826947,-0.15282984818308382
0.18980955074794487,-0.13668815234259937
0.19176609608102324,-0.13598668719215581
0.18800819323832357,-0.13727306505627923
0.19380689609273072,-0.13522638129806464
0.19566408390586904,-0.13454218231518122
0.18586215668731002,-0.13799665345270112
0.18243737632461274,-0.13922918482120056
0.1780855590158465,-0.14085994861848872
