"Plane Section: Position[X] (m)","Plane Section: Position[Y] (m)"
3.5,7.082767331303596E-4
3.2700000000000005,7.123923932136581E-4
3.04,7.388199322964177E-4
2.8100000000000005,7.806844851930624E-4
2.58,8.464117249024284E-4
2.3499999999999996,9.418273934243378E-4
2.12,0.0010755903964419237
1.8900000000000001,0.0012795771860835694
1.6600000000000004,0.0015532053997304002
1.4300000000000002,0.0019870316360119625
1.2000000000000004,0.0024503116709915377
1.1760000000000002,0.002685093863899985
1.1520000000000001,0.002766147862358595
1.1279999999999997,0.0028424776422211126
1.104,0.0029562388091891826
1.08,0.003090411892564296
1.056,0.0032446400676540066
1.032,0.00341919386598608
1.008,0.0036027722574317467
0.984,0.0038093203930932894
0.9646348393593402,0.004000000000000075
0.96,0.004046154928146825
0.9359999999999998,0.004296990661105067
0.912,0.0045527683284660656
0.8879999999999999,0.0048141290800425614
0.8640000000000001,0.005109836798688194
0.8399999999999999,0.005426831011952174
0.8160000000000001,0.005767293581750746
0.7920000000000003,0.006151000518177395
0.7680000000000005,0.006566119559667671
0.7440000000000004,0.007041165508191862
0.7200000000000003,0.007606832609654604
0.6960000000000004,0.008145349957296023
0.6720000000000002,0.008852357746307086
0.648,0.00962250181362086
0.6240000000000001,0.010617194299850405
0.6000000000000001,0.011836846084160092
0.5979358858078652,0.012000000000000049
0.5760000000000001,0.013704933849898564
0.5520000000000003,0.01585909603426757
0.5280000000000002,0.019688742174963705
0.5268975881133993,0.01999999999999927
0.5040000000000004,0.02571107409233819
0.4819795599363675,0.027999999999998693
0.47868534939924157,0.02799999999999868
0.4560000000000003,0.024660276723071497
0.4800000000000004,0.0282033401507387
-0.4779273742548389,0.02799999999999689
-0.45599999999999985,0.026168909301681996
-0.5275022134879636,0.01999999999999806
-0.5279999999999998,0.019877396939237298
-0.48134858671093406,0.027999999999996895
-0.504,0.025088068684581327
-0.47999999999999987,0.028176894791405196
-0.552,0.01610882690719976
-0.5983648906580907,0.01199999999999839
-0.6000000000000002,0.011871715529880901
-0.5760000000000003,0.013687367755139181
-0.6240000000000003,0.010631274182850535
-0.6480000000000001,0.009658912147467214
-0.6720000000000003,0.008854683770623656
-0.6960000000000002,0.008179501545170508
-0.7200000000000002,0.007580170278026463
-0.7440000000000002,0.007041770688329133
-0.768,0.006565691824156242
-0.792,0.006142875640726821
-0.8160000000000002,0.005754298945649886
-0.8400000000000001,0.005421538531630403
-0.8640000000000001,0.0051041931862021266
-0.888,0.0048146736782677104
-0.9120000000000001,0.0045479543247217286
-0.9360000000000002,0.004295019748173395
-0.9651334358809547,0.003999999999999783
-0.984,0.003817032162431876
-0.96,0.0040503111271927884
-1.008,0.0036132204417153755
-1.032,0.003432362289785656
-1.056,0.0032618889038648737
-1.08,0.0031200771369299628
-1.104,0.002989290866613433
-1.1280000000000001,0.0028683765917430376
-1.1520000000000001,0.002773390670820051
-1.1760000000000002,0.002673830402042991
-1.2000000000000002,0.002434577734161566
-1.43,0.001991644524650427
-1.66,0.001554427098530332
-1.89,0.0012797430160528833
-2.12,0.0010947821936439007
-2.3499999999999996,9.38356550980715E-4
-2.58,8.442944467540204E-4
-2.81,7.883479880766113E-4
-3.04,7.365169362319549E-4
-3.2699999999999996,7.097220557044588E-4
-3.5,7.077673476727695E-4
-0.35074044878645527,0.03057613065156852
-0.3482281804857317,0.027729864408013002
-0.34529863947082706,0.023821031766207777
-0.3468389378872668,0.025195597610256984
-0.35464286271557255,0.03493173751519543
-0.351490478751347,0.03163899023165971
-0.3551603786357898,0.03554847518017655
-0.34488860751504974,0.022022874299546337
-0.3448625310017094,0.021867521766807032
-0.35854544501588465,0.03909624546829214
-0.3446871422883766,0.01991424147928969
-0.35893142242021847,0.03945804924337757
-0.34373691629069614,0.017960278507247712
-0.3422078769895748,0.016005805561152005
-0.34293992295188935,0.016982181045377808
-0.3624483961246949,0.04284216099236424
-0.36304182342600283,0.043367922303450296
-0.34098889056083975,0.014606239156210822
-0.3405442860513397,0.014051214065880436
-0.3387344838765033,0.012096493748536838
-0.33903766990513884,0.012443974975495962
-0.36635147724763995,0.04644051232870715
-0.3673904872047838,0.047278005289292276
-0.337086359178863,0.010383939623159963
-0.33687312659164315,0.010141728007601256
-0.3348779342156323,0.008186844348825342
-0.33513492362740294,0.008465579093523516
-0.37025472080004335,0.04985450853144951
-0.37205360640992036,0.05118836533183478
-0.33281944905664956,0.006231904924781558
-0.33318342239228227,0.006621768562483814
-0.4077238861403276,0.03950103873522163
-0.4079119034200728,0.04145433014936718
-0.4081268769658273,0.043407645313818397
-0.37415814961821914,0.05305823072477263
-0.29924806462853343,-0.015594680080747334
-0.3009336983038419,-0.014983915173928056
-0.3312318309909117,0.00488029544886447
-0.33063895294313145,0.004276858000762752
-0.4076770415432033,0.03754787170385954
-0.4083009141847746,0.04536092441056516
-0.3771505360729601,0.05509910759102592
-0.2945512696665184,-0.01735186867897062
-0.29545070482173497,-0.01701641735231743
-0.3026296304236956,-0.014300470194648498
-0.2973471473848674,-0.0163056460551759
-0.32928018996976977,0.0031951400916184125
-0.32830966268342965,0.002321679978935989
-0.3259135971555438,3.664431235373086E-4
-0.32732850322246543,0.0015618832723141621
-0.40783399627980593,0.035594884233621144
-0.408469195008928,0.04731419843552688
-0.381965806491425,0.05855855258660733
-0.3828134955842751,0.05901034856113383
-0.37806190203209966,0.0558946763738703
-0.2936716147844256,-0.017676796943071907
-0.28956675073453286,-0.019196908807857026
-0.29156875952375094,-0.01845501291660253
-0.2857284624455686,-0.020638694949070637
-0.2876736394018554,-0.019906047670530513
-0.2841146097426798,-0.021254588817523117
-0.30277642709411184,-0.01426899791404833
-0.32075352008568664,-0.003544354772809688
-0.3214731316288385,-0.0029845074061309648
-0.3253768025160567,-5.5530167416275455E-5
-0.3234323304404706,-0.0015888687999180725
-0.32342503247501575,-0.0015942497645758725
-0.40837252723134326,0.033642232958086805
-0.4093182410598809,0.04871373617121275
-0.4101815554226886,0.051221958658116934
-0.3858697839422591,0.06113958447061999
-0.3897637592110604,0.06292272373406925
-0.28379749860780706,-0.021373408267011763
-0.28183919763553505,-0.022106996281668078
-0.2798918973481429,-0.02283383749898105
-0.3030898640443025,-0.014192395344117373
-0.31952133150489515,-0.004489083345165432
-0.3181893609617224,-0.005499739730132992
-0.31537182622662296,-0.007455347928693259
-0.3156175376820934,-0.007278530447014629
-0.4093328961157684,0.03208045552644721
-0.4132189599011943,0.05499324366337757
-0.4133421997581049,0.0551309949177238
-0.3897744585594486,0.0629293424356065
-0.27802599101672854,-0.023530650951279916
-0.30352285799623074,-0.014082859832775827
-0.30505639077567814,-0.013484175211832006
-0.30503132554167567,-0.013497410118267578
-0.31756952057053867,-0.005981389626076666
-0.31366557833596687,-0.008602391469438293
-0.3124401511858277,-0.009411056692630912
-0.4097149723954373,0.031690289985857246
-0.41712215992733426,0.058456641536157594
-0.39367882491500017,0.06506897298059691
-0.3975837932199053,0.0665253995385739
-0.2759965038706047,-0.024285347408893924
-0.2722631145892846,-0.02568323085509874
-0.2740485168524365,-0.025010307008844795
-0.2702005182613465,-0.026473296224903936
-0.30507584754726963,-0.013476265165947493
-0.30585705517166706,-0.013119485232294309
-0.3057264348556664,-0.01332322345125856
-0.3117135981376693,-0.009902585580863352
-0.41324115412175844,0.029803118012232812
-0.4112871041859889,0.030852046588963435
-0.41790690478168724,0.059041268250650286
-0.3986387680662704,0.06683679473897354
-0.42102533641793893,0.06194675193949625
-0.2585018466210006,-0.0309119814570694
-0.260440021950751,-0.030160138188163876
-0.2570012105601478,-0.031501382440869266
-0.2701625879616914,-0.026487749541886593
-0.26816637408714794,-0.027238694878662657
-0.26432605596150377,-0.02868298368008855
-0.2623963596417651,-0.02941284427468104
-0.3097614162986036,-0.010973920276856675
-0.3090865693982252,-0.011367137185230046
-0.307809276513139,-0.012092985208436035
-0.4133271995884494,0.02974034684657094
-0.4014885671337163,0.0682024572516587
-0.4053935348120927,0.06965959491144112
-0.422853614593383,0.0629518781558723
-0.25665073408491584,-0.03164026172737383
-0.266271799093486,-0.027951875913667067
-0.4174996764943105,0.027790897325516505
-0.4171490851062326,0.027896945252495392
-0.4151954460941984,0.028479481243246382
-0.4080175990153801,0.07075130964552223
-0.4249287366650938,0.06518290180719472
-0.4277406100063225,0.06686243544863704
-0.25462946113213747,-0.032426532418058186
-0.25268902643343893,-0.03317218509836568
-0.2509016929321969,-0.033828995444055196
-0.42105659326752964,0.026470670835377484
-0.41910272719671365,0.027310915304115228
-0.41320346261608537,0.07258244253089725
-0.4171096994708587,0.07259908296433208
-0.4210158139980289,0.07275456352071386
-0.428830878994453,0.0698467705564228
-0.2488090508980607,-0.03466593960822399
-0.24682487007907367,-0.03544189799855273
-0.4247777172866256,0.025844184018290237
-0.42301004758014693,0.026097766087388417
-0.424922187690674,0.07261589491782897
-0.42882965593360167,0.07123492728151118
-0.4294306773582655,0.0707701760295249
-0.2371568912611294,-0.03911368507914441
-0.23529524751541325,-0.03980399940378335
-0.2449333437707943,-0.03617138940092957
-0.24299535077336243,-0.03692373225374413
-0.24290544988056575,-0.03696202400100871
-0.2391045087301999,-0.03838771292810686
-0.4269168023661659,0.025526561908659047
-0.42496341560748974,0.025822793891444616
-0.20905903577719487,-0.04899875846161762
-0.20790291167591618,-0.04936411301002552
-0.20575772487846694,-0.05007908209302844
-0.20374903700767172,-0.05077194269906237
-0.21533550253902597,-0.0470241819588081
-0.2137561825687636,-0.047464694361222894
-0.23325642333741722,-0.04055129119131613
-0.231305278680919,-0.041267598977250596
-0.2295217067430464,-0.041923778502660346
-0.22740338347518488,-0.04270129438870834
-0.22540597546330376,-0.04343304202567914
-0.24106958989205257,-0.037656028612138674
-0.43668208527611496,0.025919131293758047
-0.43472884964273095,0.026043838207090955
-0.4327758080652284,0.02594829444478335
-0.4321890826563307,0.025850713937199513
-0.428869978754285,0.02546909752959556
-0.4376409320558895,0.02585551738875243
-0.17808041917439188,-0.06009421601191914
-0.17645838919811238,-0.06065683276354692
-0.17252745168122527,-0.06208968620819687
-0.17447568286844395,-0.061365395622508895
-0.17067934519079966,-0.06278948550549542
-0.18425657017525524,-0.057852805202980084
-0.18226687555918636,-0.05858971384191382
-0.1901300846503114,-0.055758901699050616
-0.1881689843138773,-0.056447931284539274
-0.18638424762099473,-0.05707867602728815
-0.20183222295765255,-0.051448095964880945
-0.19987825097988446,-0.05215665699353024
-0.1979596688277215,-0.05289186436001386
-0.19404739002600296,-0.054367429592073205
-0.192186020121826,-0.0550401371017141
-0.20970704095271733,-0.048775318134336734
-0.2116777061665172,-0.04811249596448599
-0.2156679799146668,-0.046920954540676414
-0.22349930863275708,-0.04412901767500334
-0.22154670172324412,-0.04484131894095073
-0.2196136049614768,-0.04554514689619593
-0.21763569520849108,-0.046250049697512084
-0.4308229183785717,0.02568035674241565
-0.44254252998994525,0.024707602476950443
-0.44058863288404615,0.025583071321702306
-0.43863530771155296,0.025809403865749633
-0.17045412043070135,-0.0628775736165443
-0.12798946192330482,-0.07814165541230045
-0.1276543560832475,-0.07825614088346186
-0.1783976716641006,-0.05998675591568173
-0.18035560130781322,-0.059289038747613626
-0.19599449988269035,-0.05364006660157683
-0.44449620935293604,0.024079268741765907
-0.14179110564990066,-0.07319816206840121
-0.1412466199666093,-0.07337931590297406
-0.15296393400726804,-0.06911009112542743
-0.15358688742500898,-0.06889307515667928
-0.15253935417037917,-0.06927539163133639
-0.15103251687746896,-0.06988045161607748
-0.15022618146855013,-0.07026013095248432
-0.1588644905906808,-0.06709028201357078
-0.1603896698732694,-0.06655077944508872
-0.1568980466027209,-0.06776467018848814
-0.1549570080837256,-0.0684215001693675
-0.1686434221936982,-0.06357233303686366
-0.16659201450963132,-0.06432928590202845
-0.16078683562086105,-0.06641328540917521
-0.16278160868099273,-0.06569829675148195
-0.1255917031741522,-0.07898439871618355
-0.13924601191225988,-0.07407029894423602
-0.12953063165481654,-0.07765217312932293
-0.44482467746815546,0.02390872100085608
-0.14331393634619746,-0.0727017758180482
-0.1492480945311203,-0.07074544415146525
-0.16482288590752592,-0.06495646222827164
-0.12354130292933058,-0.07972856798632817
-0.13733386585961713,-0.07478325832043532
-0.136605878771019,-0.07509060572292849
-0.12985768364193478,-0.07755348330764385
-0.44754638230350074,0.021957993250567007
-0.4464504547200574,0.022808528350687782
-0.1444515500985234,-0.07236768858665789
-0.14659043204278352,-0.07179782116537926
-0.14513300177843452,-0.07221070839413506
-0.14801880021047517,-0.07127651200409531
-0.1223433180449208,-0.08020231917973454
-0.13590243821840003,-0.07548784377125616
-0.13062206305840637,-0.07741501353615687
-0.44840470313737146,0.02153432603535205
-0.14724315658365983,-0.07162248858785097
-0.12180387751366371,-0.0804440509408863
-0.1211981621185273,-0.08071393451664009
-0.13547834465849956,-0.07576157089165939
-0.1349250304101498,-0.07605532345273994
-0.13159252279121003,-0.07723930666507481
-0.10625757845019707,-0.08630644991969547
-0.10642432018110996,-0.0862464236232973
-0.45035791922434554,0.02143180401484957
-0.11383601791186114,-0.08354138859445524
-0.11203968306830507,-0.08418485847703039
-0.11005722863185304,-0.08491948890843636
-0.10994072127711242,-0.08496304854706825
-0.12021735771361666,-0.0812124015901248
-0.1178894243014277,-0.0822700171883002
-0.11983951874355298,-0.08141074212319356
-0.13189633802920056,-0.07716070028806912
-0.13363085978889197,-0.07666627555236223
-0.10419784606711191,-0.08705211333196042
-0.10811094647321055,-0.08564911976144289
-0.10401944739997411,-0.08712412605386455
-0.4523110575594931,0.021417529219837278
-0.1159448151494157,-0.08286414228849659
-0.11396341727039803,-0.08349755734653762
-0.09497819203273034,-0.09042389803076176
-0.09442684666861367,-0.09059179626016285
-0.09703066826463914,-0.08988556595901843
-0.0964024008872852,-0.09003649775493233
-0.0924586950576189,-0.09126150561016588
-0.10246747298836636,-0.08790130435568023
-0.0030107372568523106,-0.12358404072943642
-0.002657916317683372,-0.12371250729181077
-0.006460991535399686,-0.12233008774453454
-0.004583341592402434,-0.12301301518987608
-9.03741004638697E-4,-0.12435170008398878
6.851736329239953E-4,-0.12493285517186842
-0.00840327059848975,-0.12162367273644487
-0.00854687095027502,-0.12157175059756951
-0.4562169492566474,0.021825918672936387
-0.4542640142945189,0.021609367981390397
-0.09090652004232311,-0.09190992940441209
-0.09841722640491643,-0.08969565129613769
-0.10224697741354526,-0.08806121176409938
-0.06511852940827847,-0.10122367063667187
-0.06330024375252086,-0.1019581509316073
0.004360449147599586,-0.1235989062257654
0.004031643370876697,-0.12371788058140017
0.005958850143052376,-0.12302172121512644
0.00770904799978115,-0.1223916741634658
0.0034653472344022577,-0.12392380384397757
6.954393169462352E-4,-0.12492920498465608
-0.010336438835833944,-0.12092897487740914
-0.010529967604110249,-0.12086031820227686
-0.4581698903942043,0.022035460341181208
-0.45756235098962017,0.02196681800281879
-0.09057628650489646,-0.09205352947338769
-0.082784390870608,-0.09506612989637028
-0.08311288623274359,-0.09496511578522336
-0.08232451092807287,-0.09525284781268414
-0.09852086824801853,-0.08968452011564798
-0.10143640073604429,-0.08859374824764939
-0.10061687364234584,-0.08907148579975016
-0.06915280558868545,-0.09984934649106292
-0.0690926396613819,-0.09986668982675609
-0.06706168024520982,-0.10048546007622844
-0.06123031817060434,-0.10269485962224725
0.00783949637726557,-0.12234511659248884
0.009735829789701963,-0.12166833476139752
0.002276128627904697,-0.12435755288542366
-0.011779221555127867,-0.12042288271213913
0.3497054284363457,0.02711493724694538
0.3523847078480188,0.03044416340762714
0.3462503685982545,0.023211729874417768
0.34847373145639543,0.02508149674664208
0.297695590175569,-0.01723461501900816
0.2988986479110457,-0.0167968844808823
0.2969996429629088,-0.01750712868093838
0.2952258218196015,-0.018182832009467628
-0.46012218692640683,0.022976619956816265
-0.08877061838017873,-0.09290022266644715
-0.08865542930999547,-0.09296544214490123
-0.08674471869552335,-0.0937925377334603
-0.08490111834425101,-0.09446717240167146
-0.08078108446388559,-0.0959237589508282
-0.05988330894568995,-0.10323241930784348
-0.07192245364651056,-0.09904926940742503
-0.07105138627087587,-0.09929236311348102
0.009784772093684243,-0.12165126614330588
0.011406961953295203,-0.12108025008482795
0.011722874571621217,-0.12097209925042668
0.01350841772658805,-0.12034521505308708
-0.012583065428054875,-0.12015725912578187
-0.012320546082065346,-0.12024288673980324
0.3528220358726368,0.03101844281916068
0.34550611441614154,0.02125925985509225
0.3008049193636724,-0.016101647983243213
0.29293610014327737,-0.01902458669812077
0.29312142219038195,-0.01895701957428721
0.35629462477188945,0.034604349212443895
0.35657701238445605,0.034921385944615704
-0.4620745218896092,0.023874160929786673
-0.07966326661681308,-0.09654025289744557
-0.05923894929767792,-0.10357739701382365
-0.07488647346512126,-0.09828363117192822
-0.07306362883131365,-0.09874346135923734
-0.07708412362766179,-0.09763472450686583
-0.07506448200625723,-0.09824942322107488
0.013704023203223779,-0.12027902743825637
0.015767949545231478,-0.11955049448867232
-0.013070066311957958,-0.12002115018881766
0.016820067975428267,-0.11918478047486905
0.01754693984528388,-0.11894540857736706
0.017898679245588252,-0.11885568037105818
0.34560014507345527,0.01930605124958705
0.3016176208445406,-0.01580814642735528
0.29312874677671746,-0.018977181666928765
0.2938819807808557,-0.01877486740557635
0.3602042393139395,0.03842133592132238
-0.46263659747647523,0.023924414518502017
-0.46402752412605774,0.024014356214065016
-0.07910843218225419,-0.09681819429089458
-0.057495404159603386,-0.10427834034081553
-0.05544243376523557,-0.10502338639857212
-0.05382158638703439,-0.10565551291169009
-0.04377795927494718,-0.10943738961980112
-0.04199996513757404,-0.1102726921734388
-0.013416664940838301,-0.11995709911395008
0.01840734731366211,-0.11876465733599034
0.05673612091912504,-0.10481470598584094
0.05834106695633535,-0.10426980462333796
0.05475539501983975,-0.10552792336282496
0.05295510380696578,-0.10622476257025629
0.08802533233779242,-0.09354862687288222
0.0875449798843075,-0.0938099939732942
0.34470437454248776,0.01735371472650799
0.3435016660800393,0.015401648636714478
0.34456048410479123,0.017141322695135654
0.30315918459633695,-0.015228159158433108
0.3041765030392908,-0.014831068121809537
0.302519466438837,-0.015523517556957082
0.30153497705369575,-0.01587437286987342
0.29456680369941624,-0.01866670976552704
0.36061301161078596,0.03882408146989591
-0.46598002548395406,0.024723041563686925
-0.05348179250086493,-0.10579167217101759
-0.05157276533123037,-0.1065453819909068
-0.04964021218456906,-0.1073126298367379
-0.04773990015313615,-0.10803850516371494
-0.04573511347432798,-0.10873754776248928
-0.04187550204021041,-0.11033159066574784
-0.013727918293495601,-0.1199109436641716
-0.013724838409446948,-0.11993829523192011
0.018944311942956593,-0.1187101682307787
0.07125961192721278,-0.09958072461054332
0.07045816554286555,-0.099855012612468
0.06995608744778245,-0.10005386849760155
0.06813799932066299,-0.10085419940626306
0.06850532160048028,-0.10068840863267184
