"Plane Section: Position[X] (m)","Plane Section: Position[Y] (m)"
3.4999999999999996,0.0021845736329456278
3.2700000000000005,0.002199893867070416
3.04,0.002283713419153689
2.8100000000000005,0.0024133069652902462
2.58,0.0025897463005354854
2.35,0.0028585279948947157
2.1200000000000006,0.0032496514083109143
1.8900000000000003,0.0038359011664654465
1.8496913170946319,0.003999999999999841
1.6600000000000006,0.004757704496325425
1.4300000000000002,0.006442929748322706
1.2000000000000006,0.008628197964567728
1.1760000000000002,0.009553342612519701
1.1520000000000006,0.009754468501994351
1.1280000000000003,0.010518648380939306
1.1040000000000003,0.011158577177277876
1.0800000000000005,0.011722043419206435
1.0703041525661663,0.011999999999999823
1.056000000000001,0.012410253779323374
1.0320000000000005,0.012993462284115624
1.0080000000000005,0.013541933768018918
0.9840000000000005,0.014180666595831391
0.9600000000000004,0.014994817189788559
0.9360000000000005,0.015854097869404855
0.9120000000000006,0.016774549128101317
0.8880000000000003,0.01783572640644936
0.8640000000000005,0.018967111261188788
0.8447986763750961,0.019999999999999463
0.8400000000000004,0.02026943710518627
0.8160000000000003,0.02167224860746058
0.7920000000000006,0.023205490468952587
0.7680000000000007,0.024953585967442495
0.7440000000000009,0.02689967567239277
0.7326572028408064,0.02799999999999918
0.720000000000001,0.029234997005723407
0.6960000000000008,0.031703218996050074
0.6720000000000008,0.03480773602368496
0.6650904936196971,0.03599999999999834
0.6480000000000008,0.03880145709409524
0.624000000000001,0.04351462452842432
0.6222451481750246,0.04399999999999776
0.6000000000000005,0.05010536979613575
0.5942676165481017,0.05199999999999691
0.5760000000000002,0.059112911553231125
0.5737520875639588,0.05999999999999651
0.5566816298443791,0.06799999999999563
0.5520000000000005,0.06994096282241624
0.5387534329207591,0.07599999999999502
0.5280000000000002,0.08245772723279585
0.5253153521421532,0.08399999999999458
0.5164267283955535,0.09199999999999366
0.5061252690835546,0.0999999999999929
0.5039999999999996,0.10728741097262155
0.49981352483037483,0.12166666666665969
0.5066041205887977,0.14333333333332632
0.5039999999999984,0.13565060826530861
0.5039999999999976,0.16038710585797938
0.4691840031389056,0.14333333333332593
0.45599999999999885,0.12891707772641156
0.4799999999999979,0.15321821698093605
0.45046143952416173,0.12166666666665887
-0.6226917707360087,0.04399999999999648
-0.6239999999999999,0.04364486245665345
-0.5944648867837397,0.051999999999995786
-0.5999999999999999,0.05015766838793789
-0.5741118553779339,0.059999999999995196
-0.5759999999999998,0.059253342090611574
-0.4363028725644002,0.0999999999999904
-0.4320000000000004,0.09258251463010558
-0.6649858578183216,0.0359999999999972
-0.6719999999999998,0.034791096577319075
-0.6479999999999999,0.0388195791978387
-0.5577316596734416,0.06799999999999423
-0.5394110765065174,0.07599999999999345
-0.552,0.07042302237062839
-0.5236035369836475,0.08399999999999258
-0.5280000000000001,0.08181306982477451
-0.696,0.03178209201207076
-0.514344149023175,0.09199999999999199
-0.5036556909516537,0.09999999999999108
-0.5040000000000002,0.09977902121750036
-0.45600000000000396,0.135282610018634
-0.4467520009515209,0.12166666666665736
-0.7328059578210242,0.027999999999997936
-0.744,0.026913061040526258
-0.72,0.02924843497980005
-0.49838864447798037,0.1216666666666578
-0.46306725059183007,0.1433333333333245
-0.768,0.02500052780007298
-0.5040000000000047,0.13935425651576905
-0.48000000000000687,0.15689034357612344
-0.7919999999999998,0.02324433199151822
-0.5054871724486266,0.14333333333332476
-0.5040000000000061,0.15004525626140774
-0.8159999999999998,0.021703776420856503
-0.8453744534413612,0.019999999999998783
-0.864,0.018978587184719703
-0.8400000000000001,0.0203073834621326
-0.8880000000000001,0.01789026390295812
-0.9120000000000001,0.01680701712441541
-0.9360000000000002,0.01588478645032633
-0.9600000000000002,0.015065184611685059
-0.9840000000000002,0.014245919641323235
-1.008,0.013647415600044066
-1.032,0.013050529086409688
-1.0674710149565798,0.011999999999999731
-1.0800000000000005,0.011623818171083754
-1.0560000000000003,0.012348488220414264
-1.1040000000000005,0.011070657765180387
-1.1280000000000001,0.010582338686277988
-1.1520000000000001,0.010040622699873497
-1.1760000000000002,0.009818002991312264
-1.2000000000000002,0.008627985300365695
-1.4300000000000002,0.006381205533149675
-1.8499037184434037,0.0040000000000001154
-1.8900000000000001,0.0038356289813060414
-1.6600000000000001,0.004764198334471201
-2.12,0.003250427899577797
-2.3499999999999996,0.00285046285703798
-2.58,0.0025920839832008977
-2.8099999999999996,0.002403761140839931
-3.04,0.0022752367466309024
-3.27,0.002202762301593791
-3.5,0.0021848712313697043
-0.3560567987871309,-0.04646174999197021
-0.35846509075324684,-0.04440509937644392
-0.35456120620043136,-0.048076107549953104
-0.3623687615972462,-0.04040254384222662
-0.36030790754057296,-0.04255275900062381
-0.3640522143392777,-0.03864409468368856
-0.35254520627010505,-0.05037026430591298
-0.3662723492410097,-0.03627091165034114
-0.3677190669110444,-0.03473548029220819
-0.3507260548671438,-0.0523245623003525
-0.350657731916462,-0.05238360586019518
-0.3487056466527105,-0.05399727971130922
-0.34840697098408085,-0.05427918254127954
-0.34627847535191736,-0.05623367993284247
-0.34675367126726225,-0.055781418517175343
-0.3701752344586807,-0.031049537246388807
-0.3703273225527423,-0.03082754825119161
-0.34480170825431644,-0.05758475197976709
-0.34415841080683357,-0.05818817188988024
-0.3420748851782638,-0.06014264029466425
-0.3428497541714257,-0.05940193951956167
-0.37282977732796746,-0.02691968440730161
-0.3408978246649708,-0.06125725488099714
-0.34000388688623867,-0.062097100624571286
-0.3379193684925089,-0.0640515696692756
-0.3389458822340293,-0.06309251921644454
-0.37407794440872755,-0.025556253027684155
-0.3369939319414969,-0.06491558710714938
-0.3357475641739346,-0.06600609497674248
-0.33321535091222965,-0.0679608525966307
-0.3350419110805071,-0.0666291752293017
-0.37634848167945023,-0.02301116550921525
-0.3330897073282375,-0.06805902629589902
-0.3311374597889491,-0.0694209462750203
-0.33055946624407617,-0.06991568993262944
-0.3779814023708707,-0.02122343306345245
-0.37992464231252987,-0.019102609575942713
-0.3291853974384523,-0.07107016767824212
-0.3282956566269225,-0.07187027454487946
-0.3260091790583787,-0.07382487376844041
-0.3272333992623081,-0.07281894904772368
-0.32324421534636383,-0.07577978141461629
-0.3233290160607356,-0.07571635468112159
-0.3818844108768905,-0.01619332792814602
-0.3825551464849134,-0.015194663193976936
-0.30256333029171467,-0.08855889429981895
-0.3026063318634957,-0.08853943962687291
-0.32060091661382517,-0.07773461063797757
-0.3213767701260728,-0.07708076406455101
-0.3252813122037081,-0.07442983837661744
-0.38474778062721593,-0.011286999054292597
-0.3026206906372263,-0.08853463266039953
-0.3014769027628624,-0.08914170770232543
-0.30098303257218617,-0.08938844102054008
-0.29926812902637406,-0.09002163496353124
-0.3194246922230574,-0.0787058573381823
-0.31804325662595867,-0.0796893846603055
-0.3150096653026798,-0.08164446545850343
-0.3155200934405288,-0.08126881119234737
-0.3857867214758022,-0.010080491313952349
-0.3885010838575278,-0.0073783289384491395
-0.2936510894689509,-0.0920765924745018
-0.2954370947679918,-0.09142967719162533
-0.29154397521837705,-0.09284430693496712
-0.289538086192475,-0.0935757063959693
-0.28764016031943485,-0.09427166834831313
-0.2856893158063806,-0.0949887915153503
-0.283749793397681,-0.09570005711904626
-0.28178415466197926,-0.0964135375625503
-0.2798282098768609,-0.0971166864012315
-0.30326412440025785,-0.08833938978600117
-0.3048344884711484,-0.08766222723431324
-0.3047932122413505,-0.0877085710644092
-0.2973466842372573,-0.09073257659071349
-0.3174724694420603,-0.08010618726256262
-0.3135678632580471,-0.08265765846044305
-0.3120816155232837,-0.08359947822670322
-0.38969023789724166,-0.005838364969074928
-0.2602635003522224,-0.10413374740158116
-0.2583087792152769,-0.1048402514551369
-0.2564408361138337,-0.10552241702715418
-0.27793086902758607,-0.09779515196056973
-0.2759055566805287,-0.09849347046572073
-0.2779527661746107,-0.0977873590219999
-0.2739470829970898,-0.09918968512389524
-0.2721509304367541,-0.09983314587675296
-0.27004603482723766,-0.10062570966942064
-0.26804212354167956,-0.10135556357565248
-0.26417685040165323,-0.102731454324241
-0.2622347519304131,-0.10342732526309123
-0.30490460674816355,-0.08761772227668353
-0.30575813856114903,-0.08696577506932587
-0.3053712050516866,-0.08751005443489965
-0.311615542807952,-0.0839064647774801
-0.3913678933789803,-0.0034702302387596834
-0.25440652323003393,-0.10627296419893331
-0.2524573425857894,-0.10699466015490196
-0.25066807309396644,-0.1076461651261302
-0.266133765142442,-0.10203096508148984
-0.3096631056330014,-0.08497418441824042
-0.30871627883090536,-0.08555477286133391
-0.30771074546556915,-0.08616137333852657
-0.3926994660025662,-6.568712376000298E-4
-0.3931940669252607,4.371977750494975E-4
-0.39519388924238597,0.004344737544769662
-0.4095790538496105,0.027791514803652443
-0.41310286586180667,0.03275560654667803
-0.4502235320850745,0.12938023452139258
-0.4521011054709408,0.1324616170078094
-0.2270561890242544,-0.11620723919564581
-0.2275234502017916,-0.11603826416144825
-0.22505400851679003,-0.11692590272168779
-0.2368339523833174,-0.11268611917434103
-0.2349650330520936,-0.11335649122459193
-0.24855361752470811,-0.10842334472673666
-0.24655374694116122,-0.10915631590412136
-0.2387900025956258,-0.11198325941458157
-0.3974942974230875,0.007258684848619541
-0.4012451862006047,0.012161139712987008
-0.40529882780647447,0.01962524739116619
-0.4054999391106738,0.019976383864744984
-0.41518575465939705,0.03560763039405901
-0.41668533155090703,0.04342109861430929
-0.43523101284001875,0.09812056415089533
-0.43649630932886485,0.10111236304016098
-0.44168964386341747,0.11374973050145708
-0.4643722586393417,0.14501435775412502
-0.4677152856390734,0.14925251467885145
-0.21533743308967712,-0.12047250666730183
-0.21347113187802846,-0.12114089613796418
-0.2231447972405184,-0.11761490179204301
-0.22119376473069752,-0.11833151997555769
-0.21926491794235387,-0.11904700033060751
-0.21729280462125028,-0.11976778598068762
-0.23291909738808775,-0.11408428572520111
-0.23096255156203707,-0.11478578652359553
-0.2291775957411737,-0.11543817502156084
-0.2446524833234404,-0.10985913337610125
-0.24270170476040615,-0.11057644787579532
-0.2407634237661188,-0.11127443364122172
-0.4181495036394958,0.05123454401334078
-0.43231611881256415,0.08249368202253146
-0.20947062037769082,-0.12258475450572932
-0.20768850073845505,-0.12323385428777321
-0.20429130841483178,-0.12451103500474818
-0.2055707525436526,-0.12402401550465428
-0.21142503433669677,-0.12187740817738588
-0.4208988823751272,0.058330567372000854
-0.4266038956863945,0.06686499679162626
-0.20359085042975972,-0.12479578006558766
-0.18413167205247108,-0.13196789886052926
-0.18214338406874298,-0.13270867158504224
-0.18996747870497319,-0.12977063312676074
-0.18801581355424146,-0.13048551662358146
-0.1862412406122227,-0.13114411691494968
-0.20168621517762525,-0.12550531229098594
-0.1997309376616761,-0.1262102907662601
-0.1977974945337452,-0.12690477253410254
-0.19387041410263334,-0.12833978331606155
-0.19201320458803123,-0.1290238943776952
-0.15086232929425558,-0.14387130191301264
-0.15015171167029986,-0.1441180001064848
-0.14935833359364464,-0.14440098501894308
-0.14955171018229152,-0.14434470031462926
-0.1503579878115888,-0.14408687570747558
-0.17825372080120183,-0.13404960508284297
-0.1763233315994574,-0.13474404277804158
-0.17434422418594092,-0.13546246418718286
-0.1723893017374179,-0.13616841624908801
-0.17053133219006994,-0.13684118783809063
-0.1802181969718089,-0.1333698491051133
-0.19582141784896906,-0.12762308626373348
-0.15201310462093415,-0.14348325398489908
-0.15088598411285495,-0.1439361628764621
-0.1509000963070313,-0.14397485818527234
-0.15076768630677861,-0.14403112010851607
-0.15863677163281034,-0.14116126173192264
-0.15675743695405836,-0.14183663816458855
-0.15482437547882077,-0.1425153077325744
-0.16848218607838072,-0.13758780388013037
-0.16642855780758076,-0.13833867347824202
-0.16262114833040406,-0.1397158865358165
-0.16062850767321454,-0.14043671391056373
-0.15282886761837614,-0.14319720031232777
-0.1525838187206028,-0.1432810437328425
-0.15116771655799377,-0.14385772421014376
-0.15089987407604058,-0.14397424883305499
-0.1490837562487162,-0.14475247183970708
-0.15871348297697158,-0.14113376691758867
-0.16466438349283286,-0.13897942250362988
-0.12163962433114317,-0.15445110837653214
-0.1227556712008798,-0.15404938251156072
-0.12023901963813163,-0.15496720628256785
-0.14498683726053627,-0.14626754473884723
-0.14703684069422815,-0.14551450904486962
-0.14117913868743717,-0.14765173822546757
-0.1432252618149826,-0.14691613646123958
-0.12164352358608944,-0.1544618000430718
-0.13918567955147648,-0.14836229820667576
-0.13726478489924354,-0.1490512790743968
-0.13531147698426652,-0.14976165814977555
-0.13338806305446763,-0.15045831666608572
-0.1314061171999126,-0.1511858603484502
-0.13086381075800255,-0.15143056339795935
-0.12948483447422,-0.15198405174940519
-0.12764253435244488,-0.15268112716030802
-0.10793748413392325,-0.15963106169243668
-0.10721866574152208,-0.1599134642799237
-0.11195086694629555,-0.15818762872157352
-0.1118823269343834,-0.1582109431981581
-0.109887247252098,-0.158910962866495
-0.1240057916676957,-0.15393168553829933
-0.12351207248570352,-0.15410580171989455
-0.1255711816922126,-0.15338551474105613
-0.10610274908990908,-0.16033947082893746
-0.11579961128876246,-0.15692361570282132
-0.11381985600782238,-0.1575614767147389
-0.1227968171348706,-0.15437259900490857
-0.11598378035757988,-0.1568573160787929
-0.11972956368194157,-0.15556684586664749
-0.11773254911868755,-0.15629756289368413
-0.09818971283778172,-0.16323441925401855
-0.09621169635200545,-0.16397123700537047
-0.10405271838063612,-0.16111173224620182
-0.10200900799772186,-0.16186645362146007
-0.1002417607601328,-0.16250095290967415
-0.002627655846057358,-0.1977878237073643
-0.002531683199379942,-0.19782277398958462
-0.00633435417154473,-0.1964400169494688
-0.004456684655196663,-0.1971225881056638
-7.779381103673603E-4,-0.1984618744058918
4.397079554848387E-4,-0.19890649243878833
-0.0082764428608447,-0.19573318441757329
-0.009970595844614866,-0.19511533252382088
-0.12175556401042696,-0.15476901228558004
-0.09536877967638341,-0.1643756145769758
-0.016606280347496463,-0.19270351858319704
-0.01600130233204278,-0.19292145415669448
0.013807466970932766,-0.1943334568148957
0.014278281720974065,-0.1941632360294846
0.009902191620909478,-0.1957440725958533
0.010469275653539011,-0.1955386022161377
0.01183357510261584,-0.19504647456073881
0.007960543946060872,-0.19644779053812583
0.006081803248408699,-0.19712955495616594
8.103074491631993E-4,-0.1990429153356315
-0.012178364505068262,-0.19431036198951845
-0.014234885662249454,-0.193561225676253
-0.010206375340272099,-0.1950296439939304
0.017633004621276063,-0.19295197051445784
0.01944241247895761,-0.1922997431775065
0.11347632307839162,-0.15813831752708016
0.11520228245733596,-0.15751588633939287
0.10906701710081218,-0.15974446279706014
0.10953607261490902,-0.15957102305233045
-0.08260194282610564,-0.16902354800982106
-0.08273350420558069,-0.16898370429110066
-0.08053585654902312,-0.16970911830662758
-0.09450912778512502,-0.1648998685364635
-0.01883940818729603,-0.1919014300579652
-0.01804138712062193,-0.19218803552815839
0.015865877842323198,-0.19358974068484228
0.004155931313094488,-0.19782941941724702
0.0028224270228153527,-0.19831624684053803
0.0023343966229709408,-0.19849351921538183
0.01967244642002794,-0.19221681267092397
0.1163424854549249,-0.1571202108835187
0.11539891402245632,-0.15744792417800993
0.11148894280383242,-0.15885944092970647
0.10888714716421999,-0.15982829120819805
-0.08537388089042247,-0.16823149651315678
-0.08472017642500687,-0.16842883264462152
-0.0793957009933918,-0.17020100237735514
-0.09439328248746776,-0.16495730343199666
-0.09249117616247168,-0.16580807607849835
-0.07655776405496845,-0.17144673763724266
-0.07681136699598828,-0.17134483560851177
-0.01997217900670774,-0.191506809169863
-0.020871650262464955,-0.1912065232487224
-0.020120431606927384,-0.19145711910466567
0.00240083278442633,-0.198469781677888
0.021694259505273546,-0.19150027366074412
0.021749722886833637,-0.19148112001647438
0.022721438313200955,-0.1911548993492438
0.11541043020072775,-0.15747962818654881
0.1162976255789544,-0.15715629507795614
0.1160580038251833,-0.15723232510827284
0.1149768694428687,-0.1576439964035913
0.10955010049235384,-0.15960964176210662
-0.09058208907169163,-0.1665270162598106
-0.08661654088536477,-0.16789887462498645
-0.08859118170990508,-0.16724698989237136
-0.07880979977846957,-0.17045730405422846
-0.0748431570990137,-0.1721004797220992
-0.021547648930531616,-0.19100161365647644
0.0236052886015016,-0.19086825979519867
0.023917318423702136,-0.1907621151860239
0.10565525497897907,-0.1610627995406376
0.10360540147122685,-0.16180064748420458
0.11350285498316934,-0.15821135979126963
0.11009388648539364,-0.15941769325774754
0.10738718941788199,-0.160442482926765
0.258212042143245,-0.105937388805115
0.25912918031147614,-0.10562011204900892
0.24054746344868888,-0.11236052014103617
0.23996751411776007,-0.11258040401482411
-0.0729466400377254,-0.17288045207302996
-0.07101615284311497,-0.17365340503388554
-0.06912380876415224,-0.1744097149770374
-0.06796585607115332,-0.17489631759626578
-0.06523233596826772,-0.17599322553100613
-0.06339904873044949,-0.17668661794329044
-0.021989514140169295,-0.19088110066926056
-0.022315669971692518,-0.1907839571582119
0.025088460299546672,-0.1903991208741624
0.06844380397678085,-0.17465070697210494
0.0685588928934905,-0.1746053559996448
0.10285338367891403,-0.16207163153002707
0.10349025032422862,-0.16185800877876808
0.10361166226840803,-0.16181788344240164
0.10567101093503954,-0.1611061756462952
0.08810859730418472,-0.1675473546598702
0.08626045463709182,-0.16817946796462085
0.08703436991324867,-0.16799147937128742
0.11151529932787381,-0.15893200037118954
0.1077241324436505,-0.1603423305430558
0.10957340021643486,-0.15967378584132624
0.10694257453323325,-0.160666396803617
0.17975819952546995,-0.13445086164558978
0.1799891775547414,-0.1343664054602509
0.20636680534843244,-0.12478554008852961
0.20533956849113372,-0.12514897572923792
0.2022017520417156,-0.12629845586396043
0.20342859501743396,-0.1258411166892342
0.2600934966511136,-0.1052924119745585
0.2620616334509749,-0.10462285879176308
0.2561745606207534,-0.1066792486230693
0.25538496243902575,-0.10698016337818089
0.2424046793994042,-0.11169512703747383
0.23860038244149037,-0.11308803986572045
0.23674681113958168,-0.11380063001852134
0.36164556799144293,-0.043018115809460106
0.3602850497437097,-0.04441876843390901
0.35788975810395346,-0.04692194570077661
0.3535175553496283,-0.050825378277557204
0.3563762059460574,-0.04844152119732253
0.35148882373657514,-0.052777196003364966
0.3524678034517748,-0.051779636969434224
0.36419396482587024,-0.04028542502745908
0.3653004165531175,-0.039114220840476575
-0.06716504828152878,-0.17522637379383701
-0.061368904669389934,-0.1775323946634665
-0.023047081833931463,-0.19061087257336223
0.025596035980196663,-0.1902609534765589
0.027033348033343,-0.18978627666654366
0.07054833436240057,-0.17387279380657375
0.07128108329999627,-0.17362009239618714
0.06856529245549793,-0.17462297397704807
0.090072930581199,-0.1668673303886681
0.08657452335369194,-0.16817272977403858
0.08639996916062634,-0.16824393305327917
0.0871462847350549,-0.1680912538713005
0.08650273983456755,-0.16825198924046927
0.11153004605736236,-0.15897259807874844
0.11215493331977548,-0.15877305732999797
0.11530237894943773,-0.15772339546902545
0.11354172723977561,-0.15831837501164597
0.10937300314963239,-0.1598771845145298
