"Plane Section: Position[X] (m)","Plane Section: Position[Y] (m)"
3.5,0.0014454768544699317
3.27,0.0014558395141283389
3.0399999999999996,0.0015131995039673802
2.81,0.0016022773261725942
2.58,0.0017298125811085275
2.3499999999999996,0.0019285273678046012
2.1200000000000006,0.0022088077222959432
1.8900000000000001,0.002574023525406756
1.6600000000000006,0.003063402215611001
1.4503896584430571,0.004000000000000005
1.4300000000000002,0.004096313886907702
1.2000000000000004,0.005511188090515259
1.1760000000000002,0.00609443635435419
1.1520000000000004,0.0062275609015782695
1.1280000000000001,0.006717477306252915
1.104,0.007132020632598546
1.0800000000000005,0.007480610159574268
1.0560000000000005,0.007844320622894141
1.032,0.008150814491906253
1.0080000000000005,0.00845561808666943
0.9840000000000003,0.008829195010547741
0.9600000000000002,0.009298098117288744
0.9360000000000003,0.0097907306042934
0.9120000000000004,0.010329083812370039
0.8880000000000003,0.010924968469419954
0.8640000000000007,0.011633993779454135
0.8534898814389438,0.01199999999999984
0.8400000000000003,0.012470790643440016
0.8160000000000003,0.013324198591411948
0.7920000000000005,0.014277911672955161
0.7680000000000003,0.015345681666692127
0.7440000000000004,0.01654131587482828
0.7200000000000003,0.017905035828129315
0.6960000000000003,0.01929453971554544
0.6872745199485915,0.01999999999999927
0.6720000000000003,0.02123643507094366
0.6480000000000004,0.023319151745283345
0.6240000000000007,0.02594837483936838
0.6103775392702415,0.0279999999999987
0.6000000000000008,0.029588165634156227
0.5760000000000007,0.03426310166154875
0.569869542505411,0.03599999999999824
0.5520000000000008,0.04082215889338899
0.5418590685309221,0.043999999999997395
0.5280000000000006,0.04867765801407138
0.5187096560028995,0.05199999999999658
0.5040000000000003,0.05738878459869222
0.49671144837673564,0.059999999999995925
0.48015584391340854,0.06799999999999518
0.4800000000000006,0.06808437277381477
0.4672879104968222,0.07599999999999418
0.46046717047983277,0.08399999999999358
0.4596234344826582,0.09199999999999284
0.46094656754899016,0.09999999999999232
0.4559999999999995,0.11398422308897684
-0.5700876831435617,0.03599999999999669
-0.5759999999999998,0.03435904430577512
-0.542476986582847,0.04399999999999586
-0.5519999999999998,0.04093470817677328
-0.5187196900670956,0.051999999999995154
-0.5279999999999999,0.04880765788850204
-0.4958217301205634,0.059999999999994384
-0.5040000000000001,0.05715616598454544
-0.4762287107018345,0.06799999999999358
-0.48,0.06649414963594283
-0.6108146516854895,0.027999999999997485
-0.6240000000000001,0.0260196769646835
-0.6,0.0296721169485517
-0.4637647520040683,0.07599999999999278
-0.648,0.023381500094190256
-0.45806322806216937,0.08399999999999214
-0.4518908441220112,0.09199999999999127
-0.4560000000000004,0.08753025644273518
-0.6880972151477092,0.019999999999998175
-0.6960000000000002,0.01938393661141701
-0.6719999999999999,0.021239766630978266
-0.4560000000000002,0.09868445186413416
-0.7200000000000002,0.017906500398957303
-0.4566407121380821,0.0999999999999908
-0.7440000000000001,0.016553510389688296
-0.4560000000000008,0.10609336485498749
-0.768,0.015359804911346076
-0.792,0.014290454745141453
-0.8160000000000001,0.01331490832776698
-0.8525810224462776,0.011999999999999143
-0.8640000000000003,0.011598730274505127
-0.8400000000000003,0.012444893190859257
-0.8880000000000003,0.010912154399791207
-0.9120000000000001,0.010295900756857117
-0.9360000000000002,0.009765289379998907
-0.9600000000000002,0.009284762355090289
-0.9840000000000001,0.008785706675683921
-1.008,0.008392615324496214
-1.032,0.008051871731400309
-1.056,0.00775280707176529
-1.08,0.0074704718933084596
-1.104,0.007150668661512698
-1.1280000000000001,0.0068087475555427225
-1.1520000000000001,0.00645137226746284
-1.1760000000000002,0.006308402887031841
-1.2000000000000002,0.005571206520409655
-1.4483307633403235,0.004000000000000204
-1.6600000000000001,0.0030605781757840275
-1.43,0.0040859656574774895
-1.8900000000000001,0.0025689440199302936
-2.12,0.0022155441548651136
-2.35,0.0019253196151228
-2.58,0.001732136631583187
-2.81,0.001601827932893945
-3.04,0.0015075432478968305
-3.2700000000000005,0.0014562444172711172
-3.5,0.0014464148508685438
-0.3556746427619488,-0.014339548989985205
-0.3585155082483329,-0.011328152095279535
-0.35461239840878167,-0.01551450487681404
-0.36158253144242314,-0.006522613763675748
-0.35910056928536804,-0.01043072722159829
-0.35214040823124065,-0.018248452028086167
-0.35070655721610283,-0.02020265347839561
-0.3507096612542678,-0.020197534469268804
-0.3624174783351706,-0.005622852524992129
-0.365092631474052,-0.0026137288350712748
-0.34899366290373257,-0.02215706431084658
-0.3663204850095897,-0.0012990117172116283
-0.36861129505984636,0.0012951625192571768
-0.34875814784149467,-0.022346027178078195
-0.3468318260740944,-0.024111812010586865
-0.34680636510188434,-0.024135588412519563
-0.34485454614372074,-0.025876881223295893
-0.34464996453748226,-0.026066574735994955
-0.3424602246736069,-0.02802134337296633
-0.34290271293961516,-0.027599188491727798
-0.37022343394140855,0.003101782566548821
-0.37207599152401205,0.005204013378969024
-0.340950965919087,-0.02943635248632806
-0.34037429123159224,-0.029976034118033904
-0.3382824300301923,-0.031930729311043814
-0.33899921307507713,-0.031265755532135474
-0.3741254876338145,0.008695661141527982
-0.33704743630650036,-0.033063274347044626
-0.33611923469395133,-0.03388547803013764
-0.33387394217476707,-0.03584028835145266
-0.3350956149815729,-0.034801412957976424
-0.3743750775063125,0.00911198961441319
-0.333143741851454,-0.03647051090455307
-0.3314495443277528,-0.03779523306573619
-0.3769253385232937,0.013020154320880346
-0.3311917714925561,-0.03801003219333185
-0.3292397532847498,-0.039485785283107595
-0.3289224121336109,-0.03975025486748947
-0.3264548512220462,-0.04170523196949633
-0.3272877888901935,-0.0410332552289316
-0.3780272064463086,0.014735833679909455
-0.37920496506100865,0.016928115954783447
-0.3211476602667771,-0.04561546535826559
-0.3214316887752108,-0.04539988799712956
-0.32533585283818406,-0.04261849724638572
-0.3239492726495828,-0.0436602375983229
-0.3233838393909523,-0.04410059474857915
-0.3800780543133777,0.020835022183272784
-0.3027282527562061,-0.056469511234308906
-0.3024783700144044,-0.05659606540065956
-0.2994065925511721,-0.05807239015495682
-0.29944818517477406,-0.05806159206883742
-0.31947962227416277,-0.0468112807599744
-0.31842553512967225,-0.04757063347437355
-0.3154071213654428,-0.04952602391281832
-0.3155753198967492,-0.04940834006166783
-0.3819269828346332,0.023364672079659178
-0.38311544430360567,0.024743552410471763
-0.3027973096215725,-0.05645218685371039
-0.3017340706400963,-0.05711685236121733
-0.30498175610289596,-0.05555140637995022
-0.3049517759933427,-0.055573252340100146
-0.29932141849629684,-0.058108645924438276
-0.30115686649669393,-0.057445862221320004
-0.3175275528175369,-0.0482187346422906
-0.31362314369130956,-0.05067352994873904
-0.3123459379881458,-0.05148144644372839
-0.3858293145259512,0.02858806188477845
-0.38587842086594604,0.028651876729576347
-0.29378511494167636,-0.06017276899575463
-0.2955671727688802,-0.05951052867931366
-0.2916828321685502,-0.06095485426091915
-0.28968118175032076,-0.06169801622705673
-0.28778464905223156,-0.062397811214932264
-0.285834323044312,-0.06311635574385673
-0.2838956974275577,-0.06383007854866617
-0.28193258020309653,-0.06455047166283456
-0.2799836353389214,-0.06527281080385378
-0.30501312076414816,-0.05553370155681314
-0.3058138746482274,-0.05498235257176097
-0.3055405460686995,-0.05539280401844969
-0.2974799877580543,-0.05880525644348619
-0.3116709545596821,-0.051921493132249585
-0.38876002907292684,0.03646654116444321
-0.3957036423309672,0.05209675575347472
-0.39752508631795513,0.05921548289232928
-0.39979720152871795,0.06772483178382266
-0.3977228977522817,0.059910773115688036
-0.25686962705783556,-0.07359591810379426
-0.2566011326223597,-0.07369192959797365
-0.27811788511303126,-0.06597005786955919
-0.30971861949792073,-0.05297497543476734
-0.30892052793218394,-0.05343714227477316
-0.307766327946251,-0.05408644356966534
-0.3897283655884338,0.038183540993047556
-0.39297752046099116,0.0442822079889122
-0.4035274995979582,0.07554013303925844
-0.25455634352422113,-0.07441375820253053
-0.2525907073900817,-0.07509034530424595
-0.2507905349517153,-0.075711964803796
-0.26042596702832793,-0.07230920691781817
-0.25847192901716043,-0.07301758535591213
-0.27608598767565296,-0.06671815260470762
-0.27413241376063463,-0.06742780316559092
-0.2723339416434948,-0.06806490923067045
-0.2702126654221875,-0.06881256533631623
-0.2682022371094701,-0.06952455589292891
-0.26433753999896786,-0.07090203544265367
-0.2623958647259507,-0.07159907003292047
-0.40532347123317813,0.07802956693774052
-0.22914488007040495,-0.08349971986259827
-0.22713844235499145,-0.0841628392079692
-0.22513470447108036,-0.08487723722544196
-0.23693336204221468,-0.08068873281635768
-0.23506701135818764,-0.08136614901050127
-0.24867174048179613,-0.0764772494343573
-0.2466707028792013,-0.07720702070968538
-0.2388898762522722,-0.07998714182760715
-0.26629503493726325,-0.07020313270450558
-0.4092294732210353,0.08335691375570975
-0.4186972508401108,0.09898902236973253
-0.4209306420880815,0.10179630478576868
-0.4326214614677948,0.11462447490051289
-0.4365434009699398,0.11811588719919411
-0.20775535149264945,-0.09114724567065789
-0.20829146654510194,-0.09096696909749845
-0.2056223999424803,-0.09189572820577883
-0.20362188197888376,-0.09261096878191144
-0.2154174089167532,-0.08842186655676704
-0.21355851882683838,-0.08911057405996334
-0.22322945744203215,-0.08557710474588776
-0.2212776914691916,-0.08629171101369301
-0.2193433699559893,-0.0869921812775491
-0.21736889635675669,-0.08770649680928047
-0.23302776739318687,-0.082112291325323
-0.23107537421333424,-0.08282517837103118
-0.2292819327349164,-0.08345430665771694
-0.2447629412778411,-0.0778920240147424
-0.24280453684702713,-0.07858843376476554
-0.24086465724216796,-0.07928204023312095
-0.4521619569926128,0.12670962846150488
-0.18415069083809188,-0.0997501381700863
-0.18230167991576993,-0.10044856894785315
-0.19000568095760142,-0.09760547566617994
-0.18805400978126624,-0.09832034177841108
-0.1862780949523222,-0.09897526057744407
-0.20171143854866763,-0.09330457605950121
-0.19976305552073434,-0.0940284552363666
-0.19783636421337403,-0.09474144737778033
-0.19390904298675843,-0.09617579737647698
-0.1920507840499786,-0.0968570299568493
-0.20955479422929743,-0.09054562954050235
-0.21151684973352639,-0.0898592276601452
-0.46309670719335144,0.11464734222162484
-0.173992460704179,-0.10347994018442447
-0.17242978918512353,-0.10400952675229175
-0.1705622359261711,-0.1046560300924379
-0.18216622069533867,-0.10050137138563467
-0.19586180406524772,-0.09546391876886715
-0.4600096406029006,0.07982341299911876
-0.45683946942665665,0.08339263826080215
-0.458717723849606,0.0990190520211926
-0.46375733866943014,0.07558532693474089
-0.16851222486219453,-0.10540027547552447
-0.16647804638360092,-0.10620445791379715
-0.1391598745133801,-0.11602167204273098
-0.13984325318866908,-0.11578215312880583
-0.17832813148684243,-0.10198369587419961
-0.17640055184632322,-0.10268583760030786
-0.17440210071503306,-0.10335123741767413
-0.18027198567097846,-0.10124740279233985
-0.46782798201989817,0.07204149601981666
-0.14245849504232871,-0.11489050347625065
-0.141159200605838,-0.11532718902926667
-0.1661202514460523,-0.10635188135070917
-0.16270066915569867,-0.10766399500607453
-0.16070736343654124,-0.10838300113769711
-0.13723762252303948,-0.11670693573170432
-0.13528100707528523,-0.11740824922022847
-0.13405688058680654,-0.11786499709726767
-0.1340984176177721,-0.11787798534421173
-0.47440601031620533,0.06778081504325695
-0.14322331798502907,-0.11464090776133795
-0.15098071076493513,-0.11192596914167083
-0.14913226477912156,-0.11261554464038201
-0.15878077569467142,-0.10904835938478996
-0.1568323391098408,-0.10977209175812691
-0.15490935440017342,-0.11047839017095117
-0.16473203802512798,-0.10689500200364828
-0.11380006604181547,-0.12523735376535203
-0.11434581846982703,-0.12504250406129414
-0.11288028621362362,-0.12557715987126133
-0.13476030484248674,-0.11767872819081909
-0.13472733316611019,-0.11769881689049587
-0.13446956444447689,-0.11780502694815023
-0.47564430282097236,0.06695245094181741
-0.14465969029635725,-0.1141811281347296
-0.145015999572532,-0.11407758208877063
-0.1470832669807256,-0.11337186979050459
-0.15293144982588025,-0.11120854803033228
-0.11575910393766439,-0.12454268039109477
-0.11247332911003943,-0.12573082246782383
-0.11266154390601385,-0.12569213077170985
-0.11237023187104374,-0.12580486699442361
-0.1172056028805879,-0.12404082584646808
-0.1192335267628033,-0.12336344166939997
-0.11767883333827428,-0.12388039936572741
-0.13407535622641564,-0.11804250728974305
-0.48346044378262487,0.062103077620234134
-0.11380745627448238,-0.1253429819351225
-0.11969965496005885,-0.12321493995787719
-0.1334409743284193,-0.11833346332358469
-0.12955201140400602,-0.11989827208109917
-0.1277018883096588,-0.12057389685854938
-0.4894268985122175,0.05997958387610744
-0.11383550036655789,-0.12533448194213292
-0.11531566259897294,-0.12488642297199501
-0.12535505188635976,-0.12136434851124761
-0.1235555798942331,-0.12195515858647799
-0.12159886094535799,-0.12259418512677593
-0.1256288132894951,-0.12127357815352507
-0.13185148590558593,-0.11899431797953222
-0.13148931435062602,-0.1191440215593678
-0.09822763879274965,-0.131068508239356
-0.0962588158868904,-0.13183052185108607
-0.10429935385366867,-0.12890539522601013
-0.10410034596444331,-0.1289724095218414
-0.10686918209131453,-0.128108367720893
-0.106188153623192,-0.12830370469507413
-0.10203969580955916,-0.12968069501084162
-0.10027020613770507,-0.13030905055130035
-0.4912750390412201,0.05931366049135845
-0.11584412602340438,-0.1247757323889711
-0.1217703372262043,-0.12253960002073729
-0.11626702875794498,-0.12467984316934067
-0.09579454709598641,-0.1320081207555
-0.10808883217511389,-0.12777606308228615
-0.005936819508749205,-0.16452548769307684
-0.00452463466174677,-0.16503920327673705
-1.2870657213790045E-4,-0.16663892276558429
-7.219034372207249E-4,-0.16642251255088197
-0.11588590954072395,-0.12489026418508542
-0.11507425915003183,-0.1253257363708601
-0.10920306863178793,-0.12746766542680893
-0.09046948360848271,-0.13394833710059073
-0.090608432668353,-0.13390012019674968
-0.08846924038528924,-0.13464272223407625
-0.08652508141673787,-0.13537817987869594
-0.08640684480600969,-0.13543294443324067
-0.0943465666179898,-0.13255928471376882
-0.09239664495793416,-0.13327894638307658
0.007893877534267945,-0.16436533091132877
0.008215985103711954,-0.16424868824184075
0.006014773890272981,-0.16504610295935168
-0.0025994660389705576,-0.16573909129066242
-0.0064023139074274975,-0.16435656763136697
-8.45510792900103E-4,-0.1663776970526903
7.428139594886835E-4,-0.16695930270884413
-0.012246955090766653,-0.16222859204106171
-0.01300075188795484,-0.16195664528996975
-0.010273919579271833,-0.1629450062629896
-0.008344128149897163,-0.16364893967299468
0.10556540778491434,-0.12891648679897455
0.10481219797447722,-0.1291931495265436
0.10790535585852463,-0.12806995985200745
0.10762501637105706,-0.1281705011926118
-0.11400899585492574,-0.1258100462597438
-0.11210251190249004,-0.12654462638354547
-0.11009947897882298,-0.1272228536462612
-0.08572556627221192,-0.13582198643755766
-0.07318742482256868,-0.14025565622862296
-0.07285550663973948,-0.14036065246231907
-0.07600220357783478,-0.1393692658201363
-0.07480857989545706,-0.1397357305110122
-0.07088175435007028,-0.14101499256494404
-0.06931536912784078,-0.14166826046500508
0.013743087226984555,-0.1622572558832856
0.015526913651563579,-0.16161448500322556
0.009836659936468331,-0.1636647291086736
0.01131542203652531,-0.16313143703284527
0.011768658738198526,-0.16296880319433288
0.004088686893528316,-0.16574539762191037
0.002853349507559728,-0.16619597226563942
0.0021099409442398263,-0.16646591930799898
-0.014306162142254875,-0.1614868172382125
0.018861248887012162,-0.1604222105048746
0.01757184437735791,-0.16088463600530567
0.054751333126937154,-0.14738734750721516
0.05513330633624711,-0.14725107539677817
0.05327054377720958,-0.14792748305227918
0.10364952877057984,-0.12963383045538415
0.10947712248075626,-0.1275097738966603
-0.08496936177737138,-0.1363086118555488
-0.07683172914907416,-0.13913069028548347
-0.0690002403237449,-0.14180096935194672
-0.06804250779451788,-0.14227312384036744
-0.06792509953534144,-0.14227661736387226
-0.068864832930249,-0.1418675938170718
-0.06513151388653078,-0.14344678183580029
-0.06328967834647597,-0.14411673554556553
-0.014832213533366473,-0.1613008255508524
0.015802127300411795,-0.16151527186827497
0.002333541529036274,-0.1663859428006973
0.019614214104717406,-0.16015754296379292
0.0567358818069902,-0.14668465558951121
0.05764139455228051,-0.14636807413320357
0.05492927630385562,-0.1473529004262487
0.05475858778234231,-0.14740732613974455
0.10410887214341252,-0.12949477086562472
0.08615967389615226,-0.13603310578130567
0.08697003700847382,-0.13575984302941996
0.11023856473449023,-0.1272412150644902
-0.08481310269171725,-0.13641360011269665
-0.08283189699713407,-0.13738397096765725
-0.08077738052840232,-0.1381012747211147
-0.07849973344632029,-0.13866886313001436
-0.06707561837145867,-0.1427111748474334
-0.061217739207379954,-0.1448479182606126
-0.015900906119681743,-0.1609294466498446
-0.01678894850740973,-0.1606332234804268
-0.01608131350493244,-0.16087098673261402
0.020165592931205137,-0.1599763136750939
0.058799367544997,-0.14596857823753254
0.05635252800495668,-0.1468776945138558
0.10559255652341822,-0.12899125184840962
0.08521926967555139,-0.1363955828993469
0.08801690650499527,-0.13539599741507755
0.11140041908205014,-0.1268470591936356
0.10614283921895357,-0.12879780155531212
-0.07895563673424505,-0.13858714068105604
-0.0591779272487063,-0.14559772532817716
-0.017312012128848267,-0.16048402827501507
0.020725635332050137,-0.15981455693331195
0.05981918183515643,-0.14561888072767776
0.060577343139871884,-0.14536215571602756
0.06263105198789742,-0.14465058888668558
0.05772273140429969,-0.1464425546632946
0.0567590719164507,-0.14674851895022878
0.09773898451976852,-0.1318162185012697
0.09935634549974513,-0.1312621179456881
0.09581380758411519,-0.1325095151551732
0.09506091429577768,-0.13282187795693318
0.095152731944963,-0.13278741981194195
0.09486391065851821,-0.13286234030011865
0.09555360189165663,-0.13260639144726788
0.0895156943403808,-0.1348978715170304
0.08525091807119588,-0.13638838311181797
0.08488885076810783,-0.13656479199839777
0.08495015320595939,-0.13655571403689548
0.08642261337383902,-0.13611464732391707
0.08620692465840697,-0.1361632298964602
0.0762921881723503,-0.1396996004121767
0.07824607114079261,-0.13893605395668315
0.11144338666666584,-0.12683507688971973
0.11209641574319179,-0.1266359346447682
0.10859577854693506,-0.12796949786995077
0.10766744179913965,-0.12828733679538254
0.209395860844269,-0.0915740846118597
0.2111796620501317,-0.09092961352330345
0.21313838106914593,-0.09023413784278637
0.21350531857163002,-0.0901087067897815
0.3607006631245573,-0.010970835283848946
0.36023440829923703,-0.011709020938298365
0.3582108132493744,-0.01487521810662571
0.35378077338547237,-0.018778145093813422
0.3563241899571488,-0.01699615918111689
0.35213361991629905,-0.02073003469012291
0.3524154343399282,-0.02033392613568779
0.3630841513659421,-0.00706637265184089
-0.057451822448979485,-0.1463464971406505
-0.057441562911491974,-0.1463513096787069
-0.017767474936842605,-0.1603803097055643
0.02103692850082043,-0.1597464546899535
0.021000319549260408,-0.159777222781821
0.06313620033903644,-0.1444768120019561
0.06541419292269053,-0.14374323978947884
0.0647193351234381,-0.14396451077406386
0.058432665923074584,-0.14627837680233097
0.1021259833299521,-0.13031881447664426
0.10179936372768197,-0.13042940426985336
