"Plane Section: Position[X] (m)","Plane Section: Position[Y] (m)"
3.5,0.0013103005607637747
3.27,0.0013195355947861211
3.04,0.001371386893405695
2.8100000000000005,0.001451991172689911
2.58,0.0015685921944650384
2.3499999999999996,0.001749476157278267
2.1200000000000006,0.002007185691282607
1.8900000000000003,0.002353529222548989
1.6600000000000004,0.0027952092699973525
1.4300000000000002,0.0036577792779100725
1.367542825924301,0.003999999999999952
1.2000000000000006,0.004903330882223259
1.1760000000000002,0.005429288741786964
1.1520000000000004,0.005562630220305264
1.1280000000000001,0.005991028395317271
1.104,0.006369243779715699
1.0800000000000005,0.006695219401561025
1.0560000000000005,0.007030406570019578
1.032,0.007318172144067194
1.0080000000000002,0.007595012928093619
0.9840000000000002,0.007928607188731916
0.9600000000000002,0.008345664667541924
0.9360000000000002,0.00877817548370621
0.9120000000000003,0.009261616460622266
0.8880000000000003,0.009794000891436123
0.8640000000000005,0.010400655832419798
0.8400000000000003,0.011077051622801225
0.8160000000000003,0.01182450268929856
0.8113717054622445,0.01199999999999998
0.7920000000000005,0.012720810431238953
0.7680000000000005,0.013678598762127226
0.7440000000000003,0.01473440049597461
0.7200000000000003,0.015951390059868273
0.6960000000000003,0.017173196893668106
0.6720000000000002,0.018764474793049712
0.6563620977425509,0.01999999999999927
0.6480000000000001,0.020674606370410336
0.6240000000000006,0.023039537672479897
0.6000000000000006,0.02599370717945009
0.5890325963431262,0.02799999999999877
0.5760000000000006,0.030470757627532225
0.5520000000000009,0.03592130419064159
0.5517110432614889,0.035999999999998374
0.5280000000000007,0.043077986591886594
0.525466682102111,0.04399999999999735
0.5040000000000007,0.05098329660216845
0.5005612142292988,0.05199999999999633
0.4800000000000003,0.0586174954418052
0.47612595445048045,0.059999999999995744
0.4600058360805433,0.06799999999999538
0.4560000000000005,0.07124083862717308
-0.5254443238778925,0.04399999999999582
-0.5279999999999998,0.04314422156258432
-0.5001716258269786,0.051999999999995064
-0.504,0.05085604594715841
-0.4728438974741166,0.05999999999999413
-0.48,0.0577525679398361
-0.5894035339628886,0.027999999999997457
-0.6,0.026054076315385002
-0.5524429896544785,0.03599999999999649
-0.5759999999999998,0.030487551409845687
-0.5519999999999998,0.03612351105958567
-0.4568905501362609,0.06799999999999348
-0.6240000000000001,0.02308670876442653
-0.45599999999999996,0.06881487172513667
-0.6569248344670514,0.019999999999998283
-0.6719999999999999,0.018785365026186867
-0.648,0.02074157529586157
-0.4434046245754637,0.09199999999999128
-0.44521105149202245,0.08399999999999194
-0.6960000000000001,0.017258487067729027
-0.43947626451436406,0.09999999999999046
-0.7200000000000002,0.01594021370579976
-0.4320000000000004,0.1036688771072028
-0.7440000000000002,0.014738269049760708
-0.768,0.01368345573025735
-0.8109189805105896,0.011999999999999043
-0.8160000000000003,0.011802778112021003
-0.7920000000000001,0.012722219504348778
-0.8400000000000003,0.011049366501926079
-0.8640000000000001,0.01037844123701365
-0.8880000000000003,0.009788192249194978
-0.9120000000000001,0.00923628594989677
-0.9360000000000002,0.008757545777401333
-0.9600000000000001,0.00833220058521927
-0.9840000000000002,0.007893805689937815
-1.008,0.007545114393762839
-1.032,0.0072421947470904715
-1.056,0.00696562199954878
-1.08,0.006706712219422123
-1.104,0.006407821190021009
-1.1280000000000001,0.0060714389059109055
-1.1520000000000001,0.005737682539992117
-1.1760000000000002,0.005597264062419113
-1.369132880909088,0.004000000000000161
-1.4300000000000002,0.003652816503982484
-1.2000000000000002,0.0049496407623220075
-1.6600000000000001,0.002791890180257495
-1.8900000000000001,0.002348059472681928
-2.12,0.002016557091457692
-2.35,0.001746601857615031
-2.58,0.0015703243117433168
-2.8099999999999996,0.0014531007295788718
-3.0400000000000005,0.001366267568106649
-3.2700000000000005,0.0013193704954367448
-3.5,0.0013110267009852463
-0.358522704331264,-0.003155601537641949
-0.35799735355965445,-0.0037071538974173266
-0.3546198944933643,-0.007616010859664146
-0.36151873619223196,2.0181410572370966E-4
-0.3517240467431778,-0.011524496245964168
-0.3503186536751648,-0.013478706125457476
-0.3507177404830111,-0.012926458931039997
-0.3624256232179637,0.0011634661991296717
-0.365111376604624,0.004110837086130459
-0.3487663395700148,-0.015161855833304618
-0.3484950139054388,-0.015433238693420594
-0.346700132301054,-0.01738774907371259
-0.3468148058973452,-0.017225178749875586
-0.3663285452435404,0.005478465544622698
-0.36834241876774076,0.008019581083849377
-0.3448632025027948,-0.019198132930812913
-0.34471410348091464,-0.01934240692916086
-0.342507304321427,-0.021297235114813608
-0.3429113778073357,-0.02088425203588456
-0.3701992295817834,0.011927264825459225
-0.34095970129050945,-0.0227624301325479
-0.3404532816192294,-0.02325194542935393
-0.33827930482863455,-0.025206748291675154
-0.3390079448334635,-0.02453699518997947
-0.3702297837631062,0.011975510066147138
-0.37261357153934327,0.015835378717197035
-0.3370561826491436,-0.026304136950663814
-0.33610391907590154,-0.027161552241048142
-0.33385464641649354,-0.029116413196144893
-0.33510439965547223,-0.028044307036421072
-0.3741311057302691,0.018364395547700047
-0.33315258072524456,-0.029737898656715528
-0.33154908528201277,-0.03107131757929063
-0.37491460558311773,0.0197434051888707
-0.33120070937925405,-0.031363552551333974
-0.32924872755131174,-0.032846007280821224
-0.32902987286320645,-0.03302638680010596
-0.3265417882125096,-0.03498143200501411
-0.32729678457309613,-0.034378816379719276
-0.3766623435955987,0.023651004777903082
-0.3212079017484408,-0.03889179840314614
-0.32144075542063993,-0.038717735060353475
-0.3253448432783099,-0.03591380742607744
-0.32395369821368036,-0.036936554366706516
-0.32339284449994193,-0.037374292175726465
-0.3780314782793068,0.0259838517596348
-0.3791277813411347,0.027559158091406785
-0.30205182821048004,-0.05007097909689195
-0.30192292953196315,-0.05007904589826362
-0.30211754247140893,-0.04997935259301809
-0.30270015328948996,-0.04972070247225159
-0.29936830330410585,-0.05125416629135393
-0.3011132131632616,-0.050645520207801754
-0.3194886653871281,-0.040059941147917555
-0.3183568803615384,-0.040847123623412154
-0.3153943004155475,-0.04280253491410236
-0.31558442864070213,-0.04267088938015688
-0.3819313284708148,0.034280352010629685
-0.302930338893979,-0.0496743982832995
-0.30497462033635137,-0.04882699337415647
-0.3049391197071095,-0.04885384784421381
-0.29747254952708857,-0.05204138385746285
-0.2969241121452992,-0.05226351827268444
-0.31753660667440103,-0.041442743104383145
-0.31363225243749365,-0.043901408217581775
-0.31225437197190115,-0.04475808303386199
-0.38265235923845625,0.03537437972233371
-0.2937869030206694,-0.05342912100613399
-0.29556957387788374,-0.05276892893917391
-0.2916851726766722,-0.054212610939012064
-0.289681723785369,-0.054950833895949895
-0.28778578253124937,-0.05565224765677487
-0.2858375550693149,-0.05637654350603989
-0.2839037058447423,-0.05710335751932342
-0.2819455336312126,-0.05783730415025577
-0.2799986289876293,-0.05856523466754207
-0.3050137727100578,-0.04880496699733637
-0.3058230885200233,-0.048228423598453724
-0.30552329066473993,-0.04866952740507319
-0.31168008064826674,-0.045137648163291424
-0.38626454195210463,0.04318966894272859
-0.3891950858741074,0.0510044322606142
-0.3897299098807041,0.05232368884182523
-0.39473920362160664,0.06663371434551643
-0.3920481057009563,0.058819135766601215
-0.39752797274953194,0.07103912306242507
-0.3997465046678285,0.07445007993686811
-0.27813217895092535,-0.059260562663805985
-0.309727794124374,-0.04622517689161734
-0.3088870569568358,-0.04671380658843233
-0.3077755301360465,-0.047341914671482035
-0.405270526729329,0.08226684419226007
-0.2604699726087389,-0.06568115519941917
-0.25850800661315043,-0.06636780412063081
-0.25663183996360295,-0.0670274295289403
-0.2761009540767916,-0.060010500430554656
-0.2741511643547821,-0.06073052324855768
-0.2723626207649171,-0.06139484347654805
-0.2702574829237744,-0.06218673472354517
-0.26825984751822773,-0.06293379055162678
-0.2643980077290424,-0.06431910360625351
-0.2624497292899409,-0.06499804026512762
-0.40533174935092053,0.08234880852436122
-0.23696045952251732,-0.07401434885964259
-0.23509309787120114,-0.07468899430024123
-0.24814319842380322,-0.07006095238371861
-0.2467081651655527,-0.07056104149896893
-0.2389129847761789,-0.07330182384877912
-0.25458840171365804,-0.06775296207039161
-0.25263299667683237,-0.06845759389579505
-0.25083997480680886,-0.06909881439694031
-0.2663577629657903,-0.06362639522546444
-0.41111999493543244,0.09008385953802231
-0.2036468468078284,-0.08593075284572066
-0.20408842621150658,-0.08578283386589092
-0.21542989927952982,-0.08170745277768382
-0.2135681770018631,-0.0823883969387725
-0.2227801321105846,-0.07910377202243937
-0.22129283097325536,-0.07958455779844928
-0.2193529479088382,-0.08026978473368793
-0.21738079060731177,-0.08099044934625121
-0.2330477954000022,-0.0754185307556659
-0.23108935085613985,-0.0761148316090323
-0.22930062138633628,-0.0767568764810775
-0.22718212640418087,-0.07753392307514352
-0.22518414898309463,-0.07826411088576232
-0.24478778141803426,-0.07121144945575822
-0.24871868092011343,-0.06985724883454847
-0.24282623563184236,-0.07189925012712105
-0.24088603936507988,-0.07259198947773665
-0.4209423840939278,0.10097409806781563
-0.4265468090846509,0.10572076638659139
-0.4365570324225079,0.11439725290237839
-0.4490308207997802,0.12136311805118127
-0.45217508148848895,0.12341260486893273
-0.18416134175624047,-0.09303068723928345
-0.1821683158108401,-0.09375846831126441
-0.19001012535404987,-0.0908690138037237
-0.18806086363149008,-0.09159048381321609
-0.18628850340995282,-0.09225514501405677
-0.20172725444791603,-0.08659928405691428
-0.19977144968546567,-0.08730282027601366
-0.1978417848990513,-0.08800766183678184
-0.1939196150223948,-0.08945613105965919
-0.19205773243824403,-0.0901274314099566
-0.20957758328639067,-0.08385944428577198
-0.20779687876024353,-0.08451242308217456
-0.20566397217026727,-0.08526103057102444
-0.2115272050586696,-0.08313896113504138
-0.22327057795338298,-0.0789411629110818
-0.4453261981002413,0.08229774821029177
-0.44966174813704285,0.07448859087755186
-0.44729832758413457,0.09011177208589527
-0.4586179194694989,0.12137051475332189
-0.16773769734669752,-0.09895152102686289
-0.16645910110749798,-0.09940388650643946
-0.17109054088616857,-0.09782192139516141
-0.17059192626279493,-0.09798876721815257
-0.1802575142477294,-0.0944590893733146
-0.179379245536346,-0.09479783546347453
-0.19587098058294086,-0.08874042745080855
-0.45221439521481543,0.07245684564216505
-0.4521921013774608,0.10135259058134788
-0.45598074497056473,0.10574347545260829
-0.1685224653743477,-0.0986797028721558
-0.16532134101040968,-0.09983311465468639
-0.1783200453424481,-0.09521288226586602
-0.17641475557118447,-0.09597611826435376
-0.1724791850050196,-0.09739627253230874
-0.17444462393642046,-0.09671914256617432
-0.4597142978060499,0.06668384436240588
-0.15489949385003965,-0.1037027159579492
-0.156620194660269,-0.10310134348765995
-0.16470645671087947,-0.10007623880057015
-0.16350883303247277,-0.10058806363645181
-0.16269967718478848,-0.10091262701233909
-0.16071792327876436,-0.10166329593649721
-0.13725229160826835,-0.10999850738072378
-0.1380439081365817,-0.10972268425090344
-0.14043514489658734,-0.10891269931081625
-0.13918096832007243,-0.10933085225321694
-0.13529377533608383,-0.11069461163421838
-0.13337015440095296,-0.11139070449274273
-0.1311621520485398,-0.11223345314054929
-0.13139534036125688,-0.11213779414105271
-0.46003166126519374,0.06628243130993652
-0.14247191022754158,-0.10826326319841512
-0.14119339258095054,-0.1086722679271565
-0.15404933089985332,-0.10403930825516233
-0.1509926504659341,-0.10521004631614493
-0.14914575859325574,-0.10590388059486679
-0.15880268341309764,-0.10235975970674742
-0.15683499181812816,-0.10303071535681177
-0.1314055430052718,-0.11216575852492924
-0.4671058941528169,0.05887704485083643
-0.14504935159218071,-0.10742034961889102
-0.14709822585064522,-0.1066642208004843
-0.14327131568330678,-0.10802382283299138
-0.15292851288378342,-0.10445185020899232
-0.11382024544090875,-0.11854402979161074
-0.1146698908511666,-0.11825055921123606
-0.11189423501426993,-0.11922508761992763
-0.11066392314918198,-0.1197121133480683
-0.13173428955280192,-0.11205472767206487
-0.13184146579120729,-0.11203056910204123
-0.13153027958801045,-0.11216158789349989
-0.13144577021532644,-0.11227601711502554
-0.1313084976277636,-0.11233616969194904
-0.12953824398353206,-0.11311187975482587
-0.12936181449509415,-0.1131869046693082
-0.4678502849581685,0.058348333618818624
-0.11578730913929908,-0.117871353142461
-0.1111500087352406,-0.1195797274844447
-0.11111881652601352,-0.11960859208729885
-0.11674911754852706,-0.11755440933716269
-0.11876496896549416,-0.11691260354526381
-0.11772175184901969,-0.1172493975532856
-0.12771257872034492,-0.1138545408612274
-0.4756636224399763,0.05726586073659919
-0.11233852126437432,-0.1192572558044345
-0.1119460664279468,-0.11936715212268513
-0.12380797616964953,-0.11521319044683165
-0.1235860370597304,-0.11528998883079838
-0.1197496062104181,-0.11660320998556503
-0.12565568399689223,-0.1145985739497319
-0.09823526303946643,-0.12434076320782528
-0.09626041293556742,-0.12508625436092696
-0.10275319975538022,-0.12275440489461897
-0.1020603283839234,-0.12298860427854776
-0.10028664961778015,-0.12360547894682632
-0.4834784004921741,0.05431621921969375
-0.11325364200869659,-0.1190638781962046
-0.12180682022677349,-0.11589095033112559
-0.09506412940492992,-0.12555971772163338
-0.1053395057303081,-0.12195130502475977
-0.10413196359410493,-0.12231042515682858
-0.10702546586158367,-0.12154694057652551
-0.10625196765345163,-0.12172996191256749
-0.005635789267396581,-0.15792257851643404
-0.0045363616222629626,-0.15832274986824196
-0.4912923757028533,0.05240716584427493
-0.11308146843282152,-0.11933744307953506
-0.0884893283265838,-0.12794913807596484
-0.08652465904540022,-0.12862837757311926
-0.08535171813106798,-0.12910323477715058
-0.09435571493718163,-0.1258357126637988
-0.0924085194469098,-0.12656284600064915
-0.10818056576079302,-0.12127883527173938
-0.06915482907204859,-0.1349189100987058
-0.06897297138282363,-0.13497758170512852
-0.0688762179136095,-0.13502055976776844
0.006003294963593359,-0.15832966360527623
0.007657434116129473,-0.15773064723009073
-0.002611192311472328,-0.15902269653827744
-0.006414036925204027,-0.1576400806307234
-8.572019952725423E-4,-0.15966136841481474
7.312056169152289E-4,-0.16024286253936995
-0.012259061240094748,-0.15551314383576753
-0.012507830684014225,-0.15542357704093218
-0.010285769702939056,-0.15622885710233175
-0.008355784018621972,-0.15693225864773083
-0.11211255875329729,-0.11982349023384659
-0.11016304703340038,-0.12064841658661836
-0.08894347712878004,-0.12779280228938936
-0.0904917663018346,-0.12726076647694282
-0.08471851649594957,-0.1294056807405217
-0.08431325705625559,-0.12962261019183025
-0.0716446646611367,-0.13410417392416846
-0.07090400496361444,-0.13432733863137147
-0.06756657445003109,-0.1355920415411271
0.01448482612769119,-0.15527218954972657
0.013732288812470277,-0.15554267413546136
0.009825502379990993,-0.1569491652105386
0.010806185329607964,-0.15659556436729105
0.011757834373153454,-0.15625415250434863
0.00788263405454197,-0.15764954671765885
0.0040771344766684075,-0.1590287554389874
0.002812468634467385,-0.15948983842840894
0.0021046919690864427,-0.15974682983211344
-0.014158953360506342,-0.15483350909469062
0.017875757996394605,-0.1540594447483652
0.017561924528209347,-0.15417247433688205
0.05281140767914275,-0.1413713867725107
0.053649776612224885,-0.1410700150184426
0.0512708330391401,-0.14193380168737948
0.10555579571096123,-0.12220517177328158
0.10350990261546006,-0.12295392473055701
0.10761813276997795,-0.1214667007275199
0.108355172865641,-0.12120666368174654
-0.08354163842477419,-0.13011487913521072
-0.07405953750084203,-0.13336362044176375
-0.07289458342190575,-0.13371911348829313
-0.07688872292745119,-0.1325382471253797
-0.07485534985308645,-0.13311527264497752
-0.0670265759234257,-0.13582809621569353
-0.0669858124297251,-0.13584750445824034
-0.06598136048262558,-0.1362715568970138
-0.06603503050805072,-0.1362875241127433
-0.06604484535735661,-0.13628773449585854
-0.06513411286706053,-0.13670524544939072
-0.06330305642478619,-0.13740474365919267
0.01579268765316925,-0.1548044322236598
0.002321941958793337,-0.1596691429941525
-0.014320019481908771,-0.15477616814908296
0.019604144757284427,-0.15344497039995908
0.05474354978522829,-0.14068107012485453
0.056359784654383335,-0.14011375720511415
0.05340501217850732,-0.14118662547457436
0.05281619416692432,-0.14138456917546866
0.10274576582317758,-0.12324342112261805
0.0861540937856135,-0.1293328992273749
0.08626849921361078,-0.12929560621914074
0.1094754045164975,-0.12082020073119594
-0.08280153105655955,-0.13055205825718846
-0.08119670775014556,-0.13128653604924692
-0.07693699834146825,-0.13252454385395487
-0.06123821468708347,-0.13815538104650746
-0.015289056102926565,-0.15443969956152992
0.01998275356077974,-0.15332213880379944
0.05673034231046989,-0.13998455899610918
0.05862936030443779,-0.1393312876033616
0.05479859587901356,-0.14072222569871556
0.054762728280786814,-0.14073388936687783
0.10279062654874951,-0.12325486962601881
0.10409860048095938,-0.12282155447839674
0.10353283402310318,-0.12301707981831245
0.08408664570121327,-0.13006679565696386
0.08801812874841455,-0.12871452730745142
0.08335097214334318,-0.1303549508030394
0.08374096987299615,-0.13020491995436723
0.07677554953155868,-0.13274246535315004
0.07624859706858401,-0.13292641894770932
0.10989148550450635,-0.12067657084946581
0.35952117308816106,-0.0042607385641552364
0.36022727112051056,-0.0034646793414808284
-0.07901821693713978,-0.1320099959063446
-0.08012503082350009,-0.13167753117502365
-0.08083505970776175,-0.13151068637914956
-0.05917964328961532,-0.13885377012156525
-0.016018549167544673,-0.1542013011080331
-0.01661341621127265,-0.15402589661423938
-0.016102429248075825,-0.15418023028376815
0.020573748550933482,-0.15314915637669552
0.07551069261071224,-0.133201730784539
0.06057349432448812,-0.13866671962450372
0.06173705651264988,-0.13826530211979515
0.05879611408777406,-0.1392747795300339
0.05593324888581149,-0.14037264578016365
0.10559859354539711,-0.12232304072540084
0.09782614320756966,-0.12509906330016787
0.09773824125923661,-0.1251293323328665
0.09580558589575466,-0.12580203241184193
0.09510297730209177,-0.12607276633322323
0.09534293642088612,-0.12600070760263038
0.09352027419952796,-0.12672491921860563
0.0938779337758235,-0.12658306811156436
0.08830774936445769,-0.1286175700216655
0.08316124833469496,-0.13048624779588833
0.08296530926889144,-0.1305399181440573
0.07824105085196066,-0.13223739091733452
0.1107215589790684,-0.12041677980265769
0.10596739590990731,-0.12220540983568215
0.1662750442925231,-0.1003688606037485
0.1656279053875615,-0.10063648635713884
0.16693969853098606,-0.1001601785360936
0.17797646663760258,-0.09625048705261156
0.17972149647111946,-0.0956595693180308
0.2052650062334211,-0.08636001731435546
0.20726598016409487,-0.0856460864163445
0.35680086873080696,-0.008164890939413418
0.3531799915810737,-0.01206834849876827
0.3563168724285205,-0.008840422869246675
0.35168652215303325,-0.014020321828591382
0.35240734615871877,-0.01308539253977361
0.36283168700765034,-3.570415512990872E-4
-0.0574258745910904,-0.13952671116399612
-0.05573036824312337,-0.14026166013997154
-0.016990936814180735,-0.15395060436430613
0.020858940929309205,-0.15309053835875555
0.020796265248014253,-0.1531307701839087
0.07498669533564248,-0.13345440138513778
0.06263267501037255,-0.13797022470291473
0.05654041768252668,-0.14024579810925586
0.1005684693486019,-0.12416574249887595
