"Plane Section: Position[X] (m)","Plane Section: Position[Y] (m)"
3.5,7.837051460133234E-4
3.2700000000000005,7.950464930340445E-4
3.0399999999999996,8.263985516340225E-4
2.8100000000000005,8.710543246113361E-4
2.58,9.447060720174237E-4
2.3499999999999996,0.0010668992119905307
2.1200000000000006,0.0012288557720620812
1.8900000000000001,0.0014507218592115494
1.6600000000000004,0.0017943819016837735
1.4300000000000002,0.0022975182371447003
1.2000000000000004,0.0028317171619705326
1.1760000000000002,0.003125896303462093
1.1520000000000001,0.00324560563549601
1.128,0.003380807306710824
1.104,0.003533924219726009
1.0800000000000003,0.0037179687357522433
1.056,0.0039122585981603685
1.0466245443557614,0.0040000000000000304
1.032,0.004136816461983031
1.008,0.004386375143978018
0.984,0.004625908932032909
0.96,0.004878832311493453
0.9359999999999999,0.005152850666509487
0.9120000000000001,0.005438378644343128
0.8879999999999999,0.005747691753247908
0.8640000000000001,0.006084028638767342
0.8400000000000001,0.006454953123649722
0.8160000000000001,0.00685952444874232
0.7920000000000003,0.0073386252290658874
0.7680000000000005,0.007862962790236454
0.7440000000000004,0.008453554827322803
0.7200000000000003,0.009104704549730157
0.6960000000000003,0.00979559330643992
0.6720000000000002,0.010705937575356603
0.6479999999999999,0.011768613061134386
0.6436871384305182,0.011999999999999926
0.6240000000000001,0.013030963803619199
0.6000000000000001,0.014567695840120914
0.5760000000000002,0.01658401640991643
0.5520000000000003,0.019000939426428116
0.5425544665872427,0.01999999999999922
0.5280000000000002,0.021512270565380895
0.5040000000000004,0.023487737573785514
0.4800000000000004,0.026897055914855188
0.4753626323450941,0.027999999999998627
0.4560000000000003,0.03213270262132646
-0.47523828663699436,0.027999999999996885
-0.47999999999999987,0.02693361078396113
-0.504,0.02351389905531756
-0.45599999999999985,0.03182277592327279
-0.5429586961775499,0.019999999999998005
-0.5519999999999999,0.019045315823253188
-0.5279999999999998,0.021552504259698645
-0.5760000000000001,0.016652456094259464
-0.6000000000000002,0.014585453212932269
-0.6431442994041625,0.011999999999998602
-0.6480000000000004,0.011733951346648432
-0.6240000000000003,0.013025821984511361
-0.6720000000000004,0.010719548497544473
-0.6960000000000002,0.009822705545582299
-0.7200000000000003,0.009061859853506823
-0.7440000000000002,0.00841512169212321
-0.7680000000000001,0.007833036970000791
-0.792,0.007310559137447312
-0.8160000000000002,0.006838805385772032
-0.8400000000000002,0.006425584506460029
-0.8640000000000001,0.0060564863184756745
-0.8880000000000001,0.005717181332147732
-0.9120000000000001,0.0053973241631758906
-0.9360000000000002,0.005122855635880597
-0.9600000000000001,0.004858623266328481
-0.984,0.004601552392821315
-1.008,0.00437129764836402
-1.056,0.0039214625222374
-1.0473593441316753,0.003999999999999971
-1.032,0.004139426836459813
-1.08,0.0037320709508258413
-1.104,0.0035592571541286306
-1.1280000000000001,0.0034099389240038885
-1.1520000000000001,0.003268841159108184
-1.1760000000000002,0.0031456991764863837
-1.2000000000000002,0.0028549221239686576
-1.4300000000000002,0.002308637944093008
-1.66,0.0017981932851279263
-1.89,0.00145639577328194
-2.12,0.0012239067495090493
-2.35,0.001061149777749889
-2.58,9.497950257537312E-4
-2.81,8.759968527994916E-4
-3.04,8.231722044682901E-4
-3.27,7.932865267512294E-4
-3.5,7.874842307489507E-4
-0.3016534848983441,-0.01958022162367253
-0.299986589908815,-0.020186895190171274
-0.35156962167016137,0.023988042427858458
-0.3506842116686695,0.022987274482040507
-0.35547513505998296,0.029200688498340843
-0.3539900638295769,0.02689399170282173
-0.3564284939664817,0.030800586339856495
-0.29440629074481256,-0.022219410133735754
-0.2961883152983139,-0.02157054482505499
-0.29229967260463546,-0.022986462663599813
-0.2902935370836497,-0.023716938782720534
-0.28839404874608815,-0.024408592177418247
-0.2864410249594882,-0.025119736385154124
-0.2844998830390971,-0.02582656035990422
-0.2825349693376447,-0.026542028034286992
-0.28058194366964445,-0.027253180251203827
-0.30335464174711035,-0.018959408102742235
-0.2980875771474784,-0.020878875079066817
-0.3476987446990489,0.01908060253797587
-0.34635520815812687,0.017127287650395416
-0.34766407210166494,0.019031402398454262
-0.3581906731854496,0.034707085409364555
-0.27871044216096574,-0.027934661554211964
-0.3033779127183598,-0.018950945444600256
-0.3457113333007419,0.01629845868122242
-0.34471987458312914,0.015173931526169717
-0.34332218363550937,0.013220608985513478
-0.34375853898331854,0.013958358484416414
-0.35938038008088496,0.036312355510786945
-0.26105170577235703,-0.03436475400285907
-0.25909868848398315,-0.03507592923250659
-0.2572301071686386,-0.03575634411268945
-0.2766759012919701,-0.028675509287043988
-0.2747228742414508,-0.029386657707190296
-0.2729301428508342,-0.030039498596123114
-0.2708168252030428,-0.030808968450846453
-0.26881285943539346,-0.03153867217900387
-0.26495775120471704,-0.0329424333560156
-0.2630192933346379,-0.03364828597820356
-0.3035056027228543,-0.01890719222958555
-0.3418057687154398,0.011448079926337368
-0.3416573460254162,0.01126724869178906
-0.33985286487274,0.009313868663691877
-0.33985294528876103,0.009313961430471836
-0.3610320205081282,0.03861373698650093
-0.2551926413328497,-0.03649824515913551
-0.25323962268218403,-0.03720941664755907
-0.2514503938687996,-0.037861032597242016
-0.2669107777315901,-0.032231283497786645
-0.3036118845398335,-0.018872381648400514
-0.3380190367211756,0.007360484488289227
-0.3632858301913575,0.041972776254403335
-0.3636952639755185,0.04252036339407029
-0.23574984470931185,-0.04357818260621004
-0.23761547215830867,-0.042898784933746825
-0.2493335843227304,-0.03863175671843991
-0.24733218468297324,-0.03936053448237406
-0.23956849209524983,-0.0421876169777852
-0.30376155476100364,-0.01882298112573826
-0.3379001142081361,0.007234003493904625
-0.3363864590718836,0.005407128753529462
-0.33463846003561026,0.003453756707466224
-0.3359473096449415,0.00496640398520686
-0.36464085994825113,0.04642674706433627
-0.23175643070612656,-0.04503233921939499
-0.23370945327521958,-0.04432117849203404
-0.2299707409624166,-0.04568271482518368
-0.22785042690089607,-0.04645477418555577
-0.2258516016100547,-0.04718263689270599
-0.2454275454154864,-0.04005409528502598
-0.2434745289603601,-0.040765272802986155
-0.241538771444278,-0.04147017717593532
-0.30386320527818805,-0.01879368568899192
-0.33250459035602753,0.0015003301303045471
-0.3339944787227936,0.0028853246139095108
-0.36528407697997217,0.0503330880025276
-0.21426967694152077,-0.051400236406253595
-0.21613234389833694,-0.05072188248720145
-0.22394438934541572,-0.047877116464430006
-0.2219913798296494,-0.04858831303973998
-0.22005833905831618,-0.049292292970198534
-0.21808536704812786,-0.05001072335458993
-0.304067649336357,-0.018728381095909352
-0.3320416032887946,0.00111921811954959
-0.33025726707110115,-4.5311248007636964E-4
-0.3278353988914688,-0.002406579757076488
-0.32813581409937154,-0.0021418263924373178
-0.3671904691756191,0.05337285433188217
-0.36785314225513294,0.05423970110086655
-0.208491216106177,-0.053504627545014116
-0.21027333496391476,-0.05285552607539695
-0.21222635011772556,-0.05214434498367031
-0.3043382717085983,-0.018640758098275936
-0.33008872089928526,-5.976700956258028E-4
-0.3261829236602977,-0.003801754572178774
-0.32556239253581515,-0.004360025996979294
-0.3233261734338984,-0.0063134670381197015
-0.3242300439228857,-0.005537409398205339
-0.425786393584712,0.037990531482455986
-0.4252869121681334,0.03862281746358749
-0.42187959746043313,0.04185471725798337
-0.421361439079628,0.04252851275621254
-0.424208964633763,0.040575790147948376
-0.427739630524104,0.03719856863114386
-0.36996870609841825,0.05814625011055248
-0.2082452394544174,-0.053594208653968196
-0.2043714179351281,-0.05500582423168821
-0.206367468905523,-0.05427833933151573
-0.3045457265220566,-0.01858118612812374
-0.3209163812093093,-0.008266932608547904
-0.32227715550898817,-0.007211668074726799
-0.4296927680866486,0.037109812093382696
-0.4205159716201437,0.044481518294567146
-0.4238328662642409,0.040837276775746785
-0.3726375387998766,0.06595912734699066
-0.20246174685938542,-0.055701548084133044
-0.20050902745212137,-0.056413541375636915
-0.19857908523187795,-0.05711762363000588
-0.19428833880333043,-0.058681819631797624
-0.19465090343373925,-0.05854961518193385
-0.30500858160223276,-0.0184288389583497
-0.30551232011642016,-0.018259389597481936
-0.30546084822878966,-0.018272994189776324
-0.3203242465480281,-0.008740532440456208
-0.3183713087888116,-0.010065615810298054
-0.3181723016628195,-0.010220445420341213
-0.3154827476409936,-0.012173950526602396
-0.31641838332163663,-0.011477679628395864
-0.43164593895518544,0.03678537706778715
-0.41992589363667276,0.04595042769708799
-0.41968311628967375,0.046434525615266085
-0.4179723346090375,0.04902153786600128
-0.41673316744475886,0.05034035876861017
-0.37500060438976646,0.07010700499529032
-0.18488742853091028,-0.062109917050982136
-0.1828940031101171,-0.06283660338957921
-0.1907458029513573,-0.05997453091626633
-0.18879315411038153,-0.06068671800183868
-0.1870147958863905,-0.06133493935928066
-0.19660367968057857,-0.05783777798723941
-0.19279165409730573,-0.05922813445243806
-0.305642420370825,-0.018180496973163807
-0.3144654622654235,-0.012920956122171201
-0.31251250460261326,-0.014105198532432119
-0.43202805481496986,0.036670645099826336
-0.43359914343014033,0.03622313769706188
-0.4142745673110842,0.05424626135916952
-0.37713516995617186,0.07377226302852803
-0.3820796962919881,0.08158546186512322
-0.38281135758798335,0.0824682025808875
-0.3891359687578023,0.08939895913288919
-0.3906226873643674,0.09074944191595681
-0.17710160160289212,-0.06494779336199565
-0.1790290449925635,-0.06424527814546999
-0.17447863110153491,-0.06590335529393314
-0.17512332668991806,-0.06566849717873362
-0.18098181641649563,-0.06353342770576739
-0.31248016410784496,-0.014127499870074604
-0.30576324129310845,-0.018119335736360924
-0.30665359587199725,-0.01740500840972829
-0.30618315935808993,-0.01803463979941656
-0.43555237160434723,0.0354931986946969
-0.4140653186081277,0.05444160555487715
-0.4124124510728877,0.05815224824460508
-0.39843434842459025,0.09668646433863141
-0.3991307782040606,0.09721287167359056
-0.4062461179040749,0.10185629497432844
-0.17317045217012542,-0.0663800644893952
-0.17131392093038825,-0.06705678011527101
-0.31055955041924704,-0.01531406204200596
-0.309330475941652,-0.016081070002317746
-0.30860659871594887,-0.01654047488712732
-0.4368372971661509,0.03471819972064315
-0.4124702566931696,0.062058506452674696
-0.402345136433557,0.06457507135787298
-0.4007866871339858,0.06596310537402744
-0.4062513620488379,0.06474789743126107
-0.41359566730642705,0.10502741592427609
-0.1692654312973322,-0.06780519885312189
-0.16721134907007634,-0.06855482521381578
-0.1614160788926261,-0.07066597115694372
-0.16340707040487867,-0.06994062213934533
-0.4375056554299128,0.034369461870033334
-0.410157451501761,0.06588422993898796
-0.4011093994549979,0.0687756511194484
-0.4014373025115737,0.06910454605620486
-0.4022176828700209,0.06986955772811576
-0.40008765509124755,0.07377550666508008
-0.4029804361571274,0.08158841554980867
-0.40624844620386136,0.08538087753710172
-0.41048831948922637,0.08940197663904853
-0.4140598463221041,0.09316436674588303
-0.4195365811271238,0.09721575541397066
-0.4218710844357744,0.1020942258157215
-0.41405813873809116,0.10524750120938925
-0.4218704998323519,0.10623097206451292
-0.15168935007171774,-0.07420872642896081
-0.14983558132316982,-0.07488371071443378
-0.1595012252853672,-0.07136349289928501
-0.1575482866640367,-0.07207488416984434
-0.15562347494065248,-0.07277617417151276
-0.1654477982754668,-0.06919728363201061
-0.4394588826612489,0.03364619476604168
-0.4296833312485807,0.1038863704054094
-0.42968301526871494,0.10612229389673118
-0.43749565556080194,0.10513011689981182
-0.14573125359739192,-0.07637846775361815
-0.1477833203076891,-0.0756310901052704
-0.14192466757012728,-0.07776571190610967
-0.14396751730804397,-0.077021134401617
-0.15364241632743655,-0.07349768567686313
-0.1399365100831363,-0.07849080968998728
-0.44141206940023164,0.03320945796038307
-0.43749568132222494,0.10494782499688705
-0.43772621527163436,0.10503082604422626
-0.138019742821557,-0.07919111025288807
-0.1377679255971003,-0.07928316666660278
-0.1302116270730904,-0.08204666828788584
-0.12836149576284103,-0.08272227267765236
-0.44336524740611905,0.03283451789190366
-0.12630666264459317,-0.08347195766289267
-0.13606846219962482,-0.0799070548369549
-0.1341471464071176,-0.08060946951291179
-0.13216387129929885,-0.08133337002104599
-0.4439536048281993,0.03276608037505719
-0.44531840278252116,0.032619707675069894
-0.12425770643691908,-0.08422008593997703
-0.4472715344617933,0.032572582069639686
-0.12383619756985069,-0.08437462840399557
-0.12045330118647138,-0.08562111074410811
-0.11845703201596049,-0.08635387893110155
-0.4492246846978868,0.032394145487986935
-0.1224964150937709,-0.0848701934004889
-0.1167991233679371,-0.0869647867220752
-0.09897233702416222,-0.09345015149339023
-0.09698728934168083,-0.09416768179129434
-0.10690309408545805,-0.09060385355000647
-0.10875067997841675,-0.08993068130350573
-0.10008999757793158,-0.0930490854304256
-0.45117784998606153,0.03210919793956513
-0.11460236198340773,-0.08777691599101485
-0.1165521064081136,-0.08705675259505224
-0.11268409476760094,-0.08847920251311756
-0.11070091822331435,-0.08921187407097095
-0.09506317692471436,-0.09486391842437909
-0.09310717486589679,-0.0955668966693914
-0.10484374118238682,-0.09135054853276402
-0.10279441896691505,-0.0920898720694775
-0.10102498071377757,-0.09271834109196332
-0.4531310236633165,0.031764887991132085
-0.09119026358554767,-0.09626438163225645
-0.08725164420102136,-0.09771009252384984
-0.08920306299034013,-0.09699452738469473
-0.0854097274480306,-0.09838935598985454
-0.08479938280592608,-0.09861686131986823
-0.06393108257401366,-0.10621523108422015
-0.0657722255753474,-0.10554337773358437
-0.45508426100814536,0.030970056215824812
-0.08335119407328949,-0.09914777938625438
-0.0813069853232252,-0.09989333820697226
-0.07749261837515523,-0.10128261275813812
-0.07551227112649404,-0.1020049774955493
-0.06729801449130826,-0.10498963952318438
-0.06388015703659942,-0.10623418492659661
0.2961679205842673,-0.021670594989452167
0.2943854524912235,-0.02232029197611763
-0.45703750145656996,0.030153262901639083
-0.45541737929369186,0.030814575411844215
-0.07954187160230386,-0.1005344277432762
-0.07358802426314723,-0.10270891912208413
-0.07163578041482532,-0.10342221842670137
-0.06972080315646725,-0.10411646374685982
-0.06772622338977342,-0.10483489529293333
-0.06187377802172304,-0.10698656420457026
-0.005507458849954049,-0.12742265493910707
-0.005297742607415553,-0.12749862650649535
0.26104083214409646,-0.034493138258939814
0.25908888132119706,-0.035207245127452005
0.2572215791656356,-0.035891176254470386
0.2766579038928015,-0.028784310590632214
0.27470499195133335,-0.02949577564609166
0.27291251158235796,-0.0301493067787989
0.299437304842219,-0.020476998787152926
0.2999703846474825,-0.020282373258496755
0.29227894022456846,-0.023087976018715907
0.29027301338212796,-0.023818892074625807
0.2864206979665426,-0.025222135177294554
0.2883735737061859,-0.024510599417675798
0.28447986231102285,-0.025929799447563854
0.2829105555131402,-0.026501929300774617
0.278692163929232,-0.028042690676746813
0.28056303729165666,-0.027359482555840947
0.2980708992242459,-0.02097783433886888
-0.45899068939031634,0.029708071749274284
-0.06022778345876608,-0.10760574449490436
0.012965512856715673,-0.12469607223123053
0.014036776773216237,-0.12430862245604375
0.010992643861395052,-0.1254119091663639
0.005242243949689203,-0.12749886189192386
0.0060736906744083006,-0.127197454077128
-0.0033721423292959823,-0.12819744872228012
-0.007176921617220165,-0.12682014646699233
-0.0016180534827707816,-0.1288370665368177
-8.210988088904359E-4,-0.12912910054885285
-0.007878948318091824,-0.126567344990781
0.01679124752086172,-0.12331511517793081
0.018179531179046696,-0.12281377664726217
0.2707996533409254,-0.030920039618774167
0.2687965723912604,-0.03165217568207132
0.2670733255652133,-0.03228217088220702
0.2649444069306472,-0.03306402608851954
0.26300739056883926,-0.033773841206227326
0.2563261251490177,-0.036219855673635164
0.30164804406539236,-0.019670563639957173
0.2825153318600453,-0.026646320535713305
-0.46094387408923765,0.029285770740451196
-0.059840062298316676,-0.10775312379162996
-0.05606285829522341,-0.10912231987481354
-0.05602102562861236,-0.10913738994259312
-0.054041652270560465,-0.10985434107893276
-0.052114494452075284,-0.11055837660491684
-0.05198327845336657,-0.1106078184385532
0.015024248101518948,-0.1239532418200816
0.009063007590087263,-0.12611434927755366
0.007121489009520542,-0.12681849826037234
0.0033160929814903726,-0.12819773711673063
0.0015611394361024057,-0.12883780905893816
0.0010097342397628207,-0.12903977308895942
-2.8798000523813687E-5,-0.12942193677494382
-0.011053949929682618,-0.1254233976756413
-0.01114484498430947,-0.125390464887881
-0.009122147003750452,-0.1261218633470628
0.02118036852706054,-0.1217405371670002
0.02090577593155834,-0.12183820992344055
0.018830637821921056,-0.12257980715793032
0.18488023594953557,-0.06224843770727092
0.18601886036564,-0.06183997131329701
0.18288520383119267,-0.06297070862366576
0.26689553538432437,-0.03234765878533875
0.2551874500632071,-0.03664224918456346
0.2532384809268396,-0.037364551772747404
0.25145143549501503,-0.03802216945537346
0.3033259768917762,-0.01905323505352539
-0.46289703805628357,0.02901017176523627
-0.05807623722700579,-0.10839850566628308
-0.05016535190440119,-0.11128019291752893
-0.0482616742070681,-0.11199689248995773
-0.015087115868390205,-0.12396774560001647
-0.013027898783995864,-0.12470948083753533
0.022748323179301033,-0.12118948068913604
0.023400185750155567,-0.1209606886562572
0.08536974564391939,-0.09843780570599528
0.08721664656897281,-0.09777223528005581
0.18702211088376805,-0.061513336264740495
0.18828446895529272,-0.06107814298728529
0.18097448645077346,-0.06367157227693343
0.18005615746610862,-0.06400926345756303
0.24981825376919517,-0.03862910113389224
0.2473511620456762,-0.03957097150934771
0.24934072807195073,-0.03880966660444581
0.2468222275072706,-0.03978150924425144
0.35063391586080694,0.022888164468437583
0.3515553805929943,0.02395438067223351
0.34740655106177776,0.01898237051941206
0.3476484515766468,0.01914982957871582
0.30342258986455906,-0.019018339400610422
-0.4639731606792278,0.028862659492145483
-0.46485020157705664,0.02873773063347848
-0.04709688513753107,-0.11244953183497863
-0.046285704026902644,-0.11277500836945374
-0.044571612520587736,-0.11346270448920431
-0.02059047736794409,-0.1219972682506851
-0.018897006141952298,-0.12260388073511366
-0.022815157320816556,-0.12121480629537873
-0.02097202751996593,-0.12186195268390515
-0.016097790441978885,-0.12360544511923667
-0.016856333560263174,-0.12333567139831698
-0.02359987223729924,-0.1209430761862862
-0.034577461360096914,-0.11706914088702047
-0.03260055040105396,-0.11778475199461709
-0.044356450780890705,-0.11355144606859591
-0.042535059359776584,-0.11426794810168872
0.02515945300657038,-0.12036226474217884
0.024714294601154388,-0.1205139120429998
0.0657278071376485,-0.1055796376301092
0.06768121433411754,-0.1048695338750698
0.06388388520588491,-0.10624385391947526
0.05977808511437221,-0.10774115953047489
0.06181787387176656,-0.10699127233816114
0.05638491400125243,-0.10900212348103874
0.0580184586846595,-0.10839808479485535
0.09116221422567411,-0.09634561355137622
0.09200101873401634,-0.09604462123616711
0.08917034453008102,-0.09706293074568004
0.08330759012908125,-0.09918628010733772
0.0812614776846525,-0.09992660745699568
0.07546457712594706,-0.1020322390931541
0.07744603254540545,-0.10131291914387817
0.14192317111598668,-0.0779199038980893
