"Plane Section: Position[X] (m)","Plane Section: Position[Y] (m)"
-3.5,2.703226878458376E-4
-3.27,2.7252440903163247E-4
-3.04,2.825800799356163E-4
-2.8099999999999996,3.006291471121344E-4
-2.58,3.2742398101892346E-4
-2.35,3.6649002174737134E-4
-2.1199999999999997,4.2254878077784366E-4
-1.89,5.039827606203881E-4
-1.66,6.259406428385365E-4
-1.43,8.124026736919109E-4
-1.2000000000000002,0.001019221562539974
-1.176,0.0011387195970037377
-1.1520000000000001,0.001179590107637098
-1.128,0.00122577385016452
-1.104,0.0012757701801030378
-1.08,0.0013283768498485358
-1.056,0.0013887758699957574
-1.032,0.0014492057642543179
-1.008,0.0015168786114824234
-0.984,0.0015884583479793433
-0.96,0.0016660782224581757
-0.9359999999999999,0.0017528046149211838
-0.9119999999999999,0.0018425485349435606
-0.8879999999999999,0.0019430512447053423
-0.864,0.002051308525053314
-0.8400000000000001,0.002170767580554455
-0.8160000000000001,0.002303745427756347
-0.792,0.002443087833681673
-0.768,0.002603343443222189
-0.744,0.0027796904537586847
-0.72,0.0029773968443030504
-0.6960000000000001,0.00319271416094667
-0.6719999999999999,0.003443237756835875
-0.648,0.003723218001713114
-0.6240000000000001,0.004043129772861084
-0.6000000000000001,0.00440365665281786
-0.576,0.004863709177632705
-0.552,0.0053315225179939255
-0.528,0.0059777969429759825
-0.504,0.006950960327650022
-0.48000000000000004,0.008469485681284174
-0.456,0.009471348055524138
0.47999999999999987,0.008507620825319577
0.4559999999999998,0.009440277691227466
0.5039999999999996,0.00698950765379471
0.5279999999999996,0.0059878604451495815
0.5519999999999994,0.00532850369870871
0.5759999999999994,0.00485330175434826
0.5999999999999994,0.0044021780841928745
0.6239999999999994,0.004047143277035132
0.6479999999999992,0.003719990545017111
0.6719999999999994,0.003442565238319792
0.6959999999999995,0.0031910961675951236
0.7199999999999993,0.002976989910305097
0.7439999999999993,0.0027775741076510917
0.7679999999999993,0.002601913034021813
0.7919999999999993,0.0024441360299880897
0.8159999999999994,0.002300865001152502
0.8399999999999994,0.0021700129703553462
0.8639999999999994,0.002051186235621805
0.8879999999999993,0.001941815704920837
0.9119999999999995,0.0018419963289627215
0.9359999999999993,0.0017511809303996386
0.9599999999999994,0.0016665541495840793
0.9839999999999993,0.0015875660620291092
1.007999999999999,0.0015158569852135803
1.0319999999999994,0.0014486765861525296
1.0559999999999994,0.001386440878363631
1.0799999999999994,0.0013275980847739224
1.1039999999999992,0.001274286603051092
1.1279999999999994,0.0012249032184412979
1.1519999999999995,0.001182940024094597
1.1759999999999997,0.0011394876454669668
1.1999999999999997,0.0010171731974158217
1.4299999999999997,8.120578257630414E-4
1.6599999999999997,6.26052365626746E-4
1.8900000000000001,5.037496977971327E-4
2.1199999999999997,4.2235894789061264E-4
2.3499999999999996,3.663602374762144E-4
2.58,3.27296723626889E-4
2.81,3.004900067890779E-4
3.0399999999999996,2.823755690230872E-4
3.2699999999999996,2.72321773260283E-4
3.5,2.702025621583316E-4
0.304801717366761,0.02836114215996048
0.3050045479011354,0.028361946285494315
0.30489243728920723,0.02832199253491496
0.3047405444588735,0.02825883358946068
0.30460003086827536,0.028209681862416475
0.3043095275990212,0.028099152682363
0.30182160244476886,0.027179993435649315
0.30172957281428525,0.027146407860803624
0.30027049762459845,0.026616003866102283
0.29960225353965253,0.026372812973551533
0.3047865384401368,0.0282690345643754
0.3047391710403625,0.02825643427648703
0.3031997126214119,0.027679967192474994
0.2985622238016197,0.025996212184462818
0.29747494206497527,0.025601075851166905
0.3049153804096538,0.028306590483840165
0.29222731936711316,0.023688495103371326
0.29059713870090964,0.023093357860186653
0.2966289884197865,0.025292387081775843
0.295242237888573,0.024786119035452338
0.2922860198736924,0.02370989947365388
0.292935930191765,0.023945728444449404
0.2944929827582459,0.024513412411295465
0.3050525167834389,0.02834131647625148
0.3052894354729054,0.02841217744448241
0.3052967822743903,0.02841696133854792
0.28990078153714777,0.022839575718357884
0.2878203912703987,0.022080505706291734
0.3053883428505723,0.028468132726829548
0.34324435558505606,0.042350220708768864
0.34375,0.04239842346659034
0.337890625,0.04149352186375495
0.33984375,0.04186475336941405
0.3359375,0.04107502058444906
0.345703125,0.04243704163421128
0.34685109994716257,0.04235022070876886
0.2837058514084755,0.020584160100696847
0.28565069196953496,0.02129208302660477
0.3056270241211174,0.028560729191471998
0.333984375,0.040604022492765714
0.3332655711334952,0.04039709570876885
0.330078125,0.03941354333965536
0.33203125,0.040032104310223665
0.328125,0.03875808821846395
0.341796875,0.04218381518410763
0.34901475660548253,0.04039709570876885
0.34765625,0.04213681085533704
0.2817450254355013,0.019869077964681417
0.2797920927702801,0.019157683074900303
0.3061206311182609,0.02872200962086551
0.3068501912786298,0.02895946346650828
0.3069387597427023,0.029006994745760094
0.32730660486333946,0.03844397070876888
0.34780751355558454,0.03844397070876888
0.27791671447808464,0.01847430565022154
0.30737876478618403,0.029099615301561597
0.3182811021868777,0.03453772070876885
0.318359375,0.03458139060990867
0.326171875,0.03801794600702047
0.32421875,0.03724044599315815
0.3224803825665624,0.03649084570876885
0.3203125,0.0355169226122023
0.34765625,0.0383075132019067
0.34600192758532855,0.03649084570876885
0.2758863019055542,0.01773466447867151
0.2743386448297217,0.017170874275760195
0.273933485303651,0.017022937798093343
0.27213680754906766,0.016366062029247362
0.3087609857012729,0.029395108188875023
0.31640625,0.03362694816931667
0.314453125,0.032621789594230496
0.3143934924498756,0.03258459570876885
0.32226562500000006,0.036401706961622086
0.345703125,0.03621642577125693
0.3441209838063042,0.03453772070876885
0.2680227856357006,0.014861750956693927
0.2700291617684637,0.015595886152108279
0.2641725723208831,0.01345559481860606
0.2661250932240359,0.014168133924794447
0.31064238732523686,0.030631470708768857
0.3125,0.03168837955290552
0.31054687499999994,0.03059377644947021
0.34375,0.03414622856168166
0.34241958641198705,0.03258459570876885
0.26223120818180345,0.012746145603074735
0.341796875,0.03171129089529871
0.341080690196785,0.030631470708768857
0.26026812074936945,0.012028894949523696
0.25831575051266087,0.011315941890696606
0.25644419519122974,0.0106310911946657
0.3402492198773055,0.028678345708768864
0.2559413098368824,0.010447389414583312
0.340034591995,0.026725220708768857
0.254411919402751,0.009887537317429446
0.2524597018663565,0.009174164717952496
0.25066702424726733,0.008516994846231257
0.24855580609469874,0.0077459378013712
0.3405470520653331,0.024772095708768857
0.24655178631035746,0.00701328913651984
0.24076218504602398,0.0048926325576507425
0.24269981079158792,0.005604014069412528
0.3420738608033023,0.02281897070876887
0.341796875,0.02316941649499561
0.484375,0.007403081185118057
0.4921875,0.008068875647289232
0.2446514160063068,0.006319069008806626
0.23879608104722072,0.004175330996615846
0.34375,0.02174474328007466
0.3451429733550437,0.02086584570876887
0.4765625,0.006901695332707156
0.23684348697678367,0.0034629929158814295
0.23497589262422908,0.0027763327223457243
0.34945027546422264,0.01891272070876887
0.34765625,0.019765313205093313
0.345703125,0.0206295077765278
0.3515625,0.01792888280532507
0.3534085462733566,0.01695959570876887
0.46875,0.006653464475790204
0.23460311517533572,0.0026398179038632135
0.22920274283955744,6.52919847470426E-4
0.23099005988632565,0.0013140130779033502
0.349609375,0.018850025423755416
0.353515625,0.016918190377093113
0.35546875,0.01621987855081694
0.453125,0.007253383421818336
0.45400418940989273,0.00719397070876894
0.46484375,0.006796331577475041
0.4609375,0.006863101495437452
0.2270889822789378,-1.2195668109656005E-4
0.22508829468168584,-8.557885795763972E-4
0.2329418660237852,0.0020285159866240987
0.357421875,0.01557424461762978
0.359375,0.015218971742688856
0.361328125,0.015086725093172392
0.362839249820653,0.015006470708768899
0.4453125,0.007577678922894019
0.44140625,0.007652411090444596
0.4375,0.00793388207912991
0.44921875,0.007508887176324751
0.45703125,0.006976425692211897
0.2212345501005134,-0.002268175062681045
0.22318656727062,-0.0015542519613721472
0.2193000097618141,-0.002979674348882486
0.36328125,0.014986254065145557
0.3749854314934349,0.013053345708768906
0.373046875,0.0135356488603618
0.37109375,0.0141834958109145
0.369140625,0.014494676950501953
0.3671875,0.014733516674265867
0.4296875,0.008270471631385362
0.42578125,0.008403376358416217
0.421875,0.008780937327594766
0.43359375,0.00819740810476612
0.21733311484586293,-0.0037031621939380187
0.21628322525106786,-0.004089732425012323
0.365234375,0.014884674389673242
0.375,0.013049651944616705
0.37890625,0.012665551719209162
0.380859375,0.01246660123168432
0.376953125,0.012931736083281834
0.3828125,0.012424552543581265
0.39453125,0.011128035056081106
0.39479936036166435,0.011100220708768933
0.392578125,0.011443905518133589
0.390625,0.01183452702143092
0.41796875,0.00916183929763061
0.4140625,0.009448931490737547
0.21538346102120826,-0.004423578533277974
0.388671875,0.012131240212584344
0.38671875,0.012273478683914627
0.38476562500000006,0.012389704774820782
0.39648437499999994,0.010941151306728125
0.3984375,0.010799059249071211
0.40625,0.009907113874290793
0.40234375,0.010228449837772973
0.3995312498882413,0.010606033501831789
0.41015625,0.009726844247107545
0.21352428820455827,-0.005124260812068203
0.2056397646053308,-0.008038223639843682
0.204295359724663,-0.00854544220112269
0.21148982286445916,-0.005879988014189012
0.20953551136963697,-0.006587607510374739
0.20775105473294936,-0.007245641355254986
0.20364997992841286,-0.008794027613141388
0.19980261137554126,-0.01023191554093469
0.19787184692957702,-0.010945408696936037
0.20174813397341662,-0.009500148749710252
0.1870965280738125,-0.014944030314357336
0.18632392293087485,-0.015211551427230364
0.19589685826011213,-0.011655039447626532
0.19394841560476628,-0.012378783447174514
0.19210249845892566,-0.013106725311270927
0.1915692214191289,-0.013316103069661633
0.1842037959480721,-0.015990891970534476
0.18811780256572552,-0.014590444374023116
0.18404525202662597,-0.01605460397206266
0.190076641741964,-0.013895264579845835
0.1822324277665025,-0.016789299565418504
0.18034577657880235,-0.01754516326224914
0.17839429642776902,-0.01826056181128277
0.17645929695445137,-0.018954017454378604
0.17449543336428697,-0.019702615979440397
0.17358778479158476,-0.02006889876368617
0.16495500562295706,-0.023337279716037485
0.16672853784603053,-0.02267143071397476
0.17256526543187228,-0.020476569365790512
0.17070880257096097,-0.02116633134732819
0.1686713237164168,-0.021932144826040317
0.14331367457134075,-0.03071442649294704
0.14508360162526376,-0.03004996540308745
0.16283100906074593,-0.02411715078121994
0.16084973871261188,-0.02488034502520547
0.14118219968950385,-0.03148504407724065
0.13918307999281945,-0.03219117790827487
0.14704637969702436,-0.02936560763502715
0.14868657386616158,-0.028785385017300547
0.1589786065962289,-0.025686854391357303
0.15866079811657957,-0.0258140095890579
0.13532073783199555,-0.03361194857496776
0.1372708355671544,-0.0328927518696706
0.1333915882843207,-0.03430460597675639
0.14863471588137792,-0.02894298510834043
0.14518980342232138,-0.030341752431960384
0.143430474426983,-0.03103533144742851
0.1570375029063669,-0.026430762032132137
0.15511195793027907,-0.0271417696764034
0.1314102792998142,-0.035022144455846727
0.1294580689656266,-0.035735536843223864
0.14323103157280076,-0.031117853344288272
0.14712598465532964,-0.029584320452615838
0.1531381930223358,-0.027871588570964754
0.1276012432475503,-0.036405746789264976
0.14133975002898946,-0.03191791006190451
0.13937374169906092,-0.032715016622170225
0.15119417494386436,-0.02860748899513041
0.14934638317385962,-0.029311821537867468
0.1435739789332745,-0.03142960682393604
0.1453519648667131,-0.030787287322778828
0.11770489993379368,-0.0400198390008436
0.11969581301529308,-0.039299190049781975
0.12554557302368163,-0.03714013498698377
0.12349216642982196,-0.03788685520964542
0.12173553330013953,-0.03854875813361393
0.13747820754382414,-0.0334625016725965
0.13624582744338792,-0.0339723917160495
0.1414334750539747,-0.03217541744246838
0.13942981637839286,-0.032869080531921106
0.1473039876741299,-0.030073379709851845
0.11384831773141924,-0.04146446739182301
0.11191837915612929,-0.04214648681992024
0.10795080070571411,-0.04349231113262195
0.10982543042368749,-0.04283720094779728
0.11579346563536354,-0.04073167113752075
0.1375087783897054,-0.03354649437834123
0.1064983301697961,-0.04404816640663326
0.10991349939035323,-0.04280773525024576
0.10611173998341622,-0.04420197725804323
0.09692096510305385,-0.04762652576574145
0.09821606433246385,-0.047131573753101744
0.10407675317475538,-0.04500254541359762
0.10202807657093785,-0.04575446954179792
0.10025787802244085,-0.04637982500739732
0.09624050313689403,-0.04788635637204812
0.09235726688270651,-0.0492657986506988
0.09388208709625724,-0.04873258690578163
0.09152110457968667,-0.04959191426543623
0.09432010715432958,-0.04858161177535004
0.09045475074548634,-0.05001466644348639
0.08849442227161944,-0.05080681269995166
0.08653265639772609,-0.05149395145869669
0.08466109125565859,-0.052104907136055714
0.08057271802517424,-0.05364606508006844
0.08259997231809404,-0.05284308315200655
0.07948140250096059,-0.05411273277969504
0.0768226786489321,-0.05520123783837104
0.07884878716919377,-0.05439927198746018
0.07481988760708144,-0.05591132037609309
0.06905763594627246,-0.058065566008573544
0.07094299440930693,-0.057278076754496206
0.07289437385597715,-0.056562401522508715
0.06852318785777647,-0.0583092847227685
0.06713118348311839,-0.05895930469561861
0.0652165123650043,-0.059775835227808424
0.06338058306647941,-0.060475239813525386
0.06130418212427721,-0.061180888631906495
0.059248705287933745,-0.06189852221833672
0.03758289960594427,-0.0692119028068855
0.038807824136490456,-0.0687779792972864
0.05748988127210389,-0.06255660191328949
0.05543744717301012,-0.06329330542411948
0.05344624440832456,-0.06398898265765134
0.034319823857774656,-0.0704114778101174
0.03581891836904641,-0.06985656322121192
0.042165664718896614,-0.06769455060204906
0.04172866168875382,-0.06782506668860566
0.03963371441357498,-0.0684892761314483
0.04955714618554143,-0.06536844983953177
0.051523901181991,-0.06469501858186207
0.047614523856346236,-0.06599006366410996
0.04442326369590283,-0.06708093976576338
0.04363046045451163,-0.06731615322396614
0.03377224038497521,-0.0706161471893777
0.04561169315923353,-0.06668249914143574
0.03179589471924885,-0.07134455811237869
0.008625603380247378,-0.07954076366747687
0.008434972464892318,-0.07960950604268578
0.010286771384672544,-0.07894527198905144
0.011894054048443646,-0.07837854744591478
0.012238358454457646,-0.07826135513418267
0.013510433678074186,-0.07783133717702403
0.006665490237789576,-0.0802474975569867
0.02792144495885842,-0.07277235746544977
0.02602557315771269,-0.07351384692749996
0.02986935049526334,-0.07204713774379295
0.014305623184938492,-0.07758193356028341
0.0036220491997446735,-0.08134056066137961
0.0044743583527023685,-0.08103342493716365
0.005116336330508218,-0.08080251615313927
0.0023862287592970387,-0.08178772828392425
0.0012453767179334857,-0.08220655356441398
0.024676560003048294,-0.07406006414257962
0.014963740617617238,-0.07736403241439781
-0.0023861624862373245,-0.0817869451300132
-0.00124530579427027,-0.08220471078928383
4.0636367438819196E-4,-0.08251405391321835
-0.003621857737916714,-0.08134070050995172
0.024058914836927642,-0.07431423463194925
0.01835932024574507,-0.07622062605096014
0.01814304814099653,-0.07629119826097322
0.020238731828690765,-0.07561983507346856
0.021032431202569177,-0.0753864185578734
0.016088279748433774,-0.07699339364170606
0.022117907704560735,-0.0750584013969823
-2.6512630084145003E-4,-0.0825654601131916
-7.039980975228534E-21,-0.08266348545751784
-0.005123796680844049,-0.08079704871733619
-0.005115369767367975,-0.08080008387419235
-0.008191751182762321,-0.07969867295461919
-0.006664298670576793,-0.08024437839372683
-0.012234279974337053,-0.07825012634494885
-0.010289204701585553,-0.07895214389187674
-0.008436237583835056,-0.07961334874983693
-0.012756809544905687,-0.07806453012660466
-0.014291077782451287,-0.07754194143867085
-0.014440410085949752,-0.07749285344480142
-0.016308657607869627,-0.07687452266009967
-0.016075043205797425,-0.07695701973803815
-0.020664162541969334,-0.07538173205985049
-0.020203721544976808,-0.07552364437209888
-0.01812083126655071,-0.07623015521477226
-0.02209329725581788,-0.07499078469208934
-0.027939872731605378,-0.0728229873531499
-0.026855120704190934,-0.07326713289382451
-0.02227922827425391,-0.07493262153480637
-0.03581531888186211,-0.06984667371180554
-0.03414946361852471,-0.07047348386630685
-0.0337721733939508,-0.07061596313305737
-0.031802663291536665,-0.07136315461123549
-0.029877934489597233,-0.0720707220735495
-0.02605567989071133,-0.07359656449362528
-0.024066266245766098,-0.07433443246303141
-0.04215769920519687,-0.06769744981193641
-0.04172733158163915,-0.0678214122494735
-0.03756536587495141,-0.06923019712180477
-0.03758686924004201,-0.06922280928654197
-0.03963601602849755,-0.06849559976624987
-0.043636021431692054,-0.06733143188265238
-0.04414287328565946,-0.06718299352906565
-0.0495928689281486,-0.06546659726469144
-0.047648123777923004,-0.06608237868663196
-0.07090584741432311,-0.05717601622823221
-0.06964228079428367,-0.05769388021224792
-0.045624878544391276,-0.06671872568812627
-0.05544268679265912,-0.06330770116027613
-0.05347845824441101,-0.0640774894417236
-0.05155237021677875,-0.06479828918363306
-0.06513096644745472,-0.05954079975943069
-0.06705798536887703,-0.058758194536795164
-0.0642611957247085,-0.05986052299788194
-0.08648560224980877,-0.05136467125443142
-0.08465412322182117,-0.05208576262111492
-0.07677697372371041,-0.055075664592863144
-0.07477205513402412,-0.0557799017411573
-0.072853297753628,-0.056449545862866414
-0.06901695607686359,-0.057953798989948416
-0.0884501512989188,-0.050685179206474834
-0.057465018107827656,-0.06248829093331046
-0.051581079050363646,-0.06478784002274766
-0.05156048363496168,-0.06479552804174818
-0.06328869930115326,-0.0602227912521171
-0.08453345694193692,-0.052135210013117675
-0.08262271433669137,-0.05290556633233807
-0.08058850409545337,-0.05368943695014926
-0.0788268794285384,-0.054339080966853644
-0.08921028174383772,-0.050432984994347854
-0.06123805167117959,-0.060999196711788495
-0.05920807605945494,-0.06178689433451853
-0.09821417301269442,-0.047126377394928254
-0.09623220564460411,-0.04786355920015969
-0.09559085863122369,-0.04811064492989246
-0.09433036831091354,-0.04860980407035244
-0.09239150438194058,-0.0493598654033746
-0.09046242110584235,-0.05003574058460893
-0.10408090922976228,-0.045013964080474166
-0.10448131338717163,-0.044874784029637
-0.10203046754842574,-0.045761038698221054
-0.1002655872347828,-0.04640100589347011
-0.10801608965330484,-0.04367169103544416
-0.10615614035231848,-0.04432396626464937
-0.10998626046548773,-0.04300764465403471
-0.11008316453397475,-0.042974602283580285
-0.11394547274161654,-0.041731398578968515
-0.1120014831878746,-0.0423748132624301
-0.1353486997007191,-0.033688773175140435
-0.13342846615805992,-0.03440592709850432
-0.11430325428788186,-0.04164670321948075
-0.131464491945052,-0.03517109246915296
-0.1300458683082263,-0.03570877231427915
-0.12952097733836396,-0.03590837617062528
-0.12767175719166485,-0.03659948225153902
-0.14509112506854402,-0.03007063589287637
-0.14331950040018407,-0.03073043282557054
-0.14251929233089744,-0.031030091922476237
-0.14119920653593948,-0.03153177000212538
-0.1392125717713031,-0.032272205900816864
-0.1373025938033005,-0.03298000690323931
-0.15095220551228677,-0.02794268346947837
-0.152902416468597,-0.027223797836726852
