"Plane Section: Position[X] (m)","Plane Section: Position[Y] (m)"
3.5,4.254030013619352E-4
3.2700000000000005,4.3129115054543006E-4
3.0399999999999996,4.482709616457398E-4
2.8100000000000005,4.729588521405018E-4
2.58,5.117485589336834E-4
2.35,5.779482994108871E-4
2.1200000000000006,6.65531313616639E-4
1.8900000000000001,7.845223496173547E-4
1.6600000000000001,9.696494782783845E-4
1.4300000000000002,0.00124922161069234
1.2000000000000002,0.001549630463895273
1.1760000000000002,0.001715717003525952
1.1520000000000001,0.0017763088285470447
1.1280000000000001,0.0018425114884501061
1.104,0.001920703944503294
1.0800000000000003,0.0019996613024096583
1.056,0.002079841534371435
1.032,0.0021707796321750873
1.008,0.002268354101506463
0.9840000000000001,0.0023677364852436517
0.96,0.002475574432049269
0.9359999999999998,0.0025961605694838734
0.912,0.002724762790787999
0.8879999999999999,0.002864109904741
0.8640000000000001,0.0030232071985356853
0.84,0.0032035389261132943
0.816,0.0033982784346667703
0.7920000000000003,0.0036300868424589284
0.7680000000000006,0.0038932999211440363
0.759440863080509,0.004000000000000375
0.7440000000000004,0.004192160521645165
0.7200000000000003,0.004526171287189669
0.6960000000000004,0.004877862820193384
0.6720000000000003,0.005311346876483401
0.6480000000000001,0.005786430575165464
0.6240000000000001,0.006320640285079983
0.6000000000000001,0.007018575297861335
0.5760000000000001,0.007985549572507576
0.552,0.009246469895870928
0.528,0.010714534097383183
0.504,0.011665366240546302
0.4987909476305422,0.0119999999999998
0.48000000000000004,0.013165664164474632
0.4559999999999999,0.013349347806378333
-0.49943329322462177,0.011999999999998309
-0.5040000000000004,0.011729566985349908
-0.4800000000000003,0.013114277425383633
-0.45600000000000007,0.013420482691496958
-0.5280000000000004,0.010770374170407583
-0.552,0.009261265988376512
-0.5760000000000002,0.008013216975103526
-0.6000000000000002,0.007054290873750829
-0.6240000000000001,0.006322280325839133
-0.648,0.005761933558071973
-0.672,0.005303993376928393
-0.6960000000000002,0.004875570867605745
-0.7200000000000002,0.004509670498766183
-0.7584872172453496,0.003999999999999232
-0.768,0.00387956535213537
-0.7440000000000001,0.0041833039356330365
-0.792,0.0036238215758427417
-0.8160000000000001,0.003399227062083486
-0.8400000000000001,0.003202080790247858
-0.864,0.0030290889773816193
-0.888,0.0028715968494075314
-0.9120000000000001,0.0027293850992436263
-0.9360000000000002,0.002600918121855445
-0.96,0.002480815613169222
-0.984,0.00237330622145769
-1.008,0.0022694426825500456
-1.032,0.0021748014912967763
-1.056,0.0020851422964549026
-1.08,0.0019971999258850586
-1.104,0.001920743258576997
-1.1280000000000001,0.0018453933578361933
-1.1520000000000001,0.0017788421065192163
-1.1760000000000002,0.0017158506708501516
-1.2,0.0015502481311842088
-1.43,0.001249681138331406
-1.6600000000000001,9.696761494785725E-4
-1.8900000000000001,7.865003123804528E-4
-2.12,6.627097295464455E-4
-2.3499999999999996,5.755525004389647E-4
-2.58,5.141634924076316E-4
-2.81,4.749730331770343E-4
-3.04,4.471546617786803E-4
-3.2699999999999996,4.30807647365111E-4
-3.5,4.2723133599400576E-4
-0.30164449794484594,0.006005464259497089
-0.29997755723882646,0.005398875783680316
-0.2943971479413172,0.0033666451137997974
-0.2961791976473707,0.004015441318445184
-0.2922905005509596,0.002599672916857893
-0.29028433682487487,0.001869274258292987
-0.28838482025325807,0.0011776984068874628
-0.28643176877346355,4.6663025786491876E-4
-0.2844905988674056,-2.4011685545883156E-4
-0.2825256549748608,-9.555016096074243E-4
-0.2805725974480018,-0.0016665663270439925
-0.3028031534477889,0.006428002841368035
-0.29807848181850427,0.004707047333352922
-0.3557154454637309,0.04857151829096253
-0.35937486808470887,0.0496998620937209
-0.35546874616888857,0.048420712123541126
-0.3487367019012022,0.04466456936713845
-0.3515627594786178,0.04579129930519254
-0.3476567041373169,0.043847385235364175
-0.3457036821127932,0.04281905011970784
-0.3455751599669865,0.04271112773658693
-0.278701064273694,-0.0023479606627247527
-0.3033483683787842,0.006624359799522118
-0.36718707647063503,0.05261209681154924
-0.3666421025924101,0.05247886258875943
-0.3632809553861853,0.05132464538995852
-0.34402660141193664,0.040757847642412665
-0.34375079053260427,0.04048819382500712
-0.34179781906676854,0.038955016859974025
-0.3416131091458866,0.038804480927225674
-0.33950731755709773,0.03685114502751133
-0.33984487144817543,0.037183718849561724
-0.2610420605542647,-0.008777318902696639
-0.2590890053633952,-0.009488390036225793
-0.2572203996735379,-0.010168737974661723
-0.27666649090592027,-0.003088719140184936
-0.27471343551513383,-0.003799789724607041
-0.27292067906515743,-0.004452561795692568
-0.2708073304968469,-0.005221946723031702
-0.2688033326204179,-0.005951562265705706
-0.26494816982271485,-0.007355173577863368
-0.26300968450905515,-0.0080609508281926
-0.3033603943969098,0.006628440523321019
-0.37109327975435524,0.05307876678178104
-0.3378919575777639,0.0350754363368206
-0.33776107841541275,0.03489784513610632
-0.3359034182131539,0.032944534086147545
-0.33593904197122215,0.032984489538826295
-0.25518290992608933,-0.010910573349977339
-0.253229856424865,-0.011621649124321912
-0.2514405990058141,-0.012273186521492044
-0.2669012196298605,-0.006644087657288793
-0.30348901398160755,0.006671194162553631
-0.3749994889743248,0.053486161812376504
-0.3341622356275935,0.03099123470114825
-0.2357398043978202,-0.01798966242956069
-0.23760547132147958,-0.017310373166643796
-0.24932376083861102,-0.013043832028901399
-0.24732233403310014,-0.01377253518492182
-0.2395585210063078,-0.01659928691010562
-0.3037658645968741,0.006767648891129133
-0.33249152233464335,0.02903794237346788
-0.333986136163368,0.030795700226207343
-0.3821422999753588,0.05248041489593479
-0.38085891043926534,0.0530224904678917
-0.37890567730397745,0.05410215210532807
-0.37781194930995055,0.053883477826514536
-0.23174633381603038,-0.01944366365706645
-0.23369938256608183,-0.018732574833054363
-0.22996060615800867,-0.02009393514847659
-0.2278402525940455,-0.02086588601491444
-0.22584140085943577,-0.02159367609969122
-0.24541766191424905,-0.014466005765042436
-0.24346461461677207,-0.015177098578724329
-0.24152882704965173,-0.01588192042206998
-0.3039876094189411,0.006842359286434582
-0.33203324114988286,0.028499126318423516
-0.33089461778134605,0.02708465743755573
-0.382812127255686,0.052105777030567325
-0.2142592749961701,-0.025810723068545215
-0.21612198991039383,-0.025132500854063614
-0.22393416220756213,-0.02228808320135612
-0.221981115248581,-0.022999176944756936
-0.2200480332535146,-0.02370304366577311
-0.21807504333064123,-0.024421424857307868
-0.3042264162590504,0.006921770401485772
-0.33008035300210836,0.026133996435108414
-0.3292697131364068,0.025131369697504173
-0.32749541047524655,0.023178066995603576
-0.3281274510758718,0.023906448176862386
-0.38496778096675366,0.0505275728512123
-0.3847653930164282,0.050700341614892
-0.20848072809998286,-0.027914877877479226
-0.21026289523459643,-0.02726590898133452
-0.20445139685342142,-0.029382081770147263
-0.20635682793567894,-0.028688169580568336
-0.21221592815483906,-0.026554776678830008
-0.30453079175572545,0.007024188343680501
-0.3261745242710838,0.021927318818193445
-0.3255045865784757,0.02122474260962553
-0.3232602743456189,0.01927139283740744
-0.3242215739862668,0.02018264377860323
-0.3849645103780177,0.04857444751387785
-0.20436060243249415,-0.029415175185397317
-0.30472486929805365,0.007081159553309253
-0.32075548460589787,0.017318016978998953
-0.3222686084218973,0.01859053907645856
-0.3847656296082155,0.048337910091667394
-0.38346757162035405,0.046621172589299986
-0.3814265277238569,0.044667843173911106
-0.3828127313195193,0.04607404002177122
-0.20049814218436965,-0.030822700868598354
-0.2024510111323695,-0.030111118196416646
-0.19856808066674247,-0.03152645561391232
-0.19278037761783012,-0.03363621996001248
-0.19463987773467153,-0.03295838931266118
-0.19137433950951682,-0.03414870528483359
-0.30511955017348014,0.007207277156790372
-0.3054805381003072,0.007327700189450544
-0.3053809812776356,0.007300100523528603
-0.32031564120786293,0.01701490677198471
-0.31836265754743603,0.01560349602392093
-0.3180943028600489,0.015364625458303872
-0.3152031510378464,0.013411210906668504
-0.31640966725032166,0.014258354322096264
-0.38085979323831193,0.044207508703673834
-0.37932559478973993,0.04271450776078159
-0.18487605205666935,-0.03651772834038822
-0.18288259402890022,-0.03724432521792325
-0.1907343616178505,-0.03438216380046932
-0.1887817297062367,-0.03509439752187475
-0.1870035635643324,-0.03574314653624195
-0.19659268835347865,-0.032246646432278286
-0.3056548327731151,0.007403615632729127
-0.3144566771016165,0.012911730700459574
-0.3125036822295649,0.011612270957398776
-0.37890685575679794,0.042334989260151494
-0.37745055346526446,0.04076119497014861
-0.17708996292791013,-0.03935488482475149
-0.17901745274839298,-0.03865249705470912
-0.17315884955974775,-0.04078725511112375
-0.17511174428860088,-0.04007574324919483
-0.1713021404937603,-0.0414634823992511
-0.18097041700195887,-0.037941176150842346
-0.31228862035110105,0.01145779401369891
-0.3057768328264507,0.007452159714284744
-0.30664465669171803,0.008122505613877644
-0.3062616553420147,0.007550940408183613
-0.3759464718710521,0.03880791933023325
-0.3769539448987843,0.04019662713710531
-0.37480644388465284,0.036854680149402734
-0.37500111801845126,0.03721972570581836
-0.16925282973092826,-0.042209646092757104
-0.16719836643856756,-0.042958226006446124
-0.3105506812961595,0.010373335403144765
-0.30914016170838643,0.009504353693412137
-0.3085976791609082,0.009146400646614384
-0.3739658881041724,0.03490147095998658
-0.16589412218655986,-0.04343385694640545
-0.16140403324996141,-0.0450719456216899
-0.16339476117544022,-0.044345872584066505
-0.3733641874911101,0.032948285691335455
-0.37299476585785835,0.030995123684861934
-0.373048593191022,0.031226746115735008
-0.15167839889130832,-0.04861770710125496
-0.14982487817093426,-0.04929337262782611
-0.15948944394142528,-0.04577019332764361
-0.15753670625653152,-0.04648213652988746
-0.15561186812179212,-0.04718335404075051
-0.16543508150169695,-0.04360141467334279
-0.3730337661989352,0.02904200258085971
-0.14572087683120494,-0.05078902616467834
-0.14777281389311558,-0.05004129239801636
-0.14191393068301178,-0.05217528134149299
-0.14395706228239097,-0.0514314779176023
-0.15363106840056828,-0.04790557664635996
-0.13992534096689033,-0.0528991920907997
-0.37304881641408716,0.02899780485121607
-0.13800778387277268,-0.05359732355324291
-0.13605483528131815,-0.054308687475003364
-0.1346739693765946,-0.05481293581807288
-0.13019848131661776,-0.05644962329811616
-0.12834818743767706,-0.0571247813947222
-0.37374467156877,0.027088948766516772
-0.12629321348531028,-0.05787407973224742
-0.134133500868585,-0.05501105133056359
-0.13215126335634653,-0.05573780192181665
-0.375002237665979,0.026039749236330522
-0.1242442276780504,-0.05862212694671111
-0.12043538079167287,-0.06001095404673828
-0.11843732640174273,-0.06073881958044329
-0.380232427105599,0.02513647348970891
-0.37890855171754134,0.02540037302951673
-0.3769554070162078,0.02559699825298027
-0.11529945972559964,-0.061885375452131894
-0.11652999132625524,-0.06143507639800042
-0.12248062780763537,-0.05926589475290536
-0.10687760814937652,-0.06497292271791
-0.10872548594593999,-0.06430055216884295
-0.38281489452882816,0.02447382338892701
-0.38086171717286904,0.024996513692754525
-0.11457851711945909,-0.06215048989625816
-0.11266063260615283,-0.0628538279905907
-0.11067647637080923,-0.06358380990476707
-0.10481953712641409,-0.06572313818612528
-0.10360777024686724,-0.06616987454587529
-0.38456624490008984,0.02318378250125814
-0.0989693184437997,-0.06788092530649198
-0.09698436994169432,-0.0685987274228546
-0.10277610139258436,-0.06647862888496994
-0.10101581567690478,-0.06713223467675636
-0.38506948314921186,0.02123070788955497
-0.3847681959769175,0.022712040371285165
-0.09118463122460632,-0.07068797419969428
-0.09243328530870451,-0.07023832184208892
-0.0872401659623036,-0.07211762999349465
-0.08919365563779628,-0.0714077522247534
-0.0853951420880596,-0.07278836034717517
-0.083330009570483,-0.0735286594025379
-0.0812842701498604,-0.07427001419184488
-0.0950604715975259,-0.06929555154140454
-0.09310463381509348,-0.06999897994930815
-0.07549519185459436,-0.07639713336532782
-0.07747476645399726,-0.07567264630516154
-0.38672166067091707,0.01932020380400624
-0.07952237033153407,-0.07491993092088246
-0.07447478326437264,-0.07677671886804385
-0.06473976536898762,-0.08036269886362049
-0.06393141352297538,-0.08065520550041982
0.2610446674030732,-0.008868237493050274
0.25963069703405184,-0.0093845258475243
0.2786994802392839,-0.002427360203205221
0.2805707676295888,-0.0017452902544067665
0.278110357418507,-0.002642079276740422
0.29617579264722016,0.003943125102305464
0.29439349152968264,0.0032930328477139927
-0.3875970976525782,0.019277836014224496
-0.3886747867906285,0.019309120982997603
-0.3883281988733013,0.019277909232238974
-0.0735757291926272,-0.0771142157562022
-0.07162724135617783,-0.07783783168326344
-0.06971396874256088,-0.07853675867667566
-0.0677239316561927,-0.07926766636283873
-0.06594634279803752,-0.0799234037456761
-0.06186368163564771,-0.08139790119545519
-0.06577406919948707,-0.07998750672844675
0.2649499447264553,-0.007443805464601002
0.2630119467926506,-0.008150922321952879
0.25909250870036993,-0.00958177259473954
0.2572256104715276,-0.01026681333298311
0.27666548650865275,-0.0031697118459242278
0.274713226847216,-0.0038829694793069054
0.2729210825966325,-0.004537424222863717
0.2999789412117504,0.0053292153947169275
0.2981280768011756,0.004653835210197088
0.2902814205778808,0.0017934388493460345
0.29228716466284277,0.0025248550601933554
0.2864292289661785,3.8985594121169413E-4
0.2883820523919063,0.0011015353295962217
0.2844882793545279,-3.1749496433389516E-4
0.2825235609493001,-0.001033499292033854
0.29807870952653237,0.0046357752957282726
-0.3888265428164085,0.019277959140176472
-0.059818422181313696,-0.08213275747177214
-0.0035728267377252345,-0.10252416608588677
-0.003359256526201963,-0.10260151076077671
-0.005953191531038745,-0.10166573523678084
-0.005285985359236798,-0.10190574949415672
-0.0022175572066850608,-0.10301759756765372
0.27080819473545703,-0.0053080754311281625
0.268804732750387,-0.006039163903140175
0.266902706756053,-0.00673192850654296
0.2551892221131913,-0.011011675830560959
0.2532376159264025,-0.011726729430345594
0.25144930856569353,-0.01238087807050134
0.24733272840787873,-0.013884857400167845
0.24933290365664973,-0.013152714414657877
0.24672109837190281,-0.01410951547024204
0.23957865530381817,-0.016738378208618676
0.23798651002863805,-0.017329271127022004
0.30165643023865707,0.005941035190033764
-0.390627945439706,0.018973223836563212
-0.058053847218873085,-0.08277608003681482
-0.056007145687710605,-0.08353833717949971
-0.05563773025110233,-0.08367660105869121
-0.04880423520303439,-0.08616456489826124
-0.04823727394991144,-0.08636894827597197
-0.044293902460420906,-0.087818738565063
-0.042460017278235146,-0.08850093099590917
0.012982846031282509,-0.09910827785603572
0.01350209661469632,-0.09892160061534092
0.0090772883340016,-0.10051818076522605
0.009918305174859728,-0.10021325689367717
0.011008043927765668,-0.09981880866873098
0.0071359990970948,-0.10122303061047291
0.0033302068625988886,-0.10260150166499535
0.00379439336579814,-0.10243326353328033
0.005257042882637295,-0.10190439987455441
0.0015748616264357903,-0.10324060339292886
0.0014363197878801733,-0.10329126469594017
-0.0071668141833677226,-0.10123167128244749
-0.001604914596677291,-0.10324110424782525
-1.5241355376734075E-5,-0.10382430015031205
-0.008144777539682097,-0.10088014618749014
0.17710421379024838,-0.03947781688463289
0.17903250404925755,-0.03877762852500953
0.2454315149166641,-0.014587833567843943
0.24348046755282501,-0.015304422999553174
0.24154585572566672,-0.016012476307773513
0.2376307152287044,-0.01746350750659189
0.23576963596422457,-0.018155405320967422
0.3033338157732236,0.00655823612473699
-0.40234674148902094,0.018513995930802288
-0.4003935964234281,0.018714258383249964
-0.39844046731895477,0.018755144841875043
-0.39648734079270687,0.018770287053371235
-0.3945342181006911,0.01874714343604124
-0.3925810926964241,0.018751082416312563
-0.05403647033046442,-0.0842791780069235
-0.052109668997266045,-0.08498419292809375
-0.05015205372898367,-0.08568273925525716
-0.047088501779394956,-0.08678923539064104
-0.04624371909264815,-0.08709877233696198
-0.040403473646551356,-0.08928395216250373
-0.04034076045193394,-0.0893084063802814
0.015043295272486715,-0.09837015463849146
-0.011807215567361995,-0.09956520975819148
-0.011044874198281774,-0.09983754373436234
-0.00911214268132828,-0.10053350024540264
0.016452233963102584,-0.09786666904725971
0.016813048512196865,-0.0977395953056158
0.018680479751663114,-0.09708365066897258
0.17512488810681812,-0.04019563324794624
0.17317166256824248,-0.040906236328661416
0.17131538304823973,-0.041583644394918816
0.16926612857491474,-0.04232996294245432
0.16721204647901383,-0.04307959096061042
0.16609028041480556,-0.04348920488055488
0.18490752513765804,-0.03668799101392865
0.1864938955696155,-0.03612763440236484
0.18290938460971637,-0.0374017193896095
0.180390755797919,-0.0382858793282143
0.2317833484788756,-0.019629148367801042
0.23373269798731344,-0.018907892662905816
0.22999960470755332,-0.02028487241785412
0.22788276952878644,-0.02106649309382221
0.22779165156798878,-0.021101164072982685
0.30359223588238454,0.0066516894212071635
-0.4062530823127502,0.01760729252677867
-0.4042999130466874,0.018049203090149988
-0.407814976688926,0.01732673577598392
-0.03838209984480284,-0.09007658807981998
-0.013612668712860283,-0.09893561986096117
-0.01302504690471655,-0.09914071374204342
0.018858980097021277,-0.09702226410000354
0.0657450641461794,-0.0799916214736669
0.06769707880083156,-0.079277690479879
0.06390202614934837,-0.08065826786528484
0.059795856461767195,-0.0821545573094268
0.061837788347301345,-0.08141056102459568
0.05597635257092094,-0.08353753550627435
0.058029875920439636,-0.08279401746354155
0.05399800981859888,-0.08425731674985262
0.05207334745599883,-0.0849682123217689
0.051189395406461946,-0.08529667595636994
0.08651503224763948,-0.07250562606207864
0.08540288807264564,-0.0728934474684754
0.08206723043684798,-0.07406156497509038
0.08127939740891249,-0.07434041281839156
0.07548043647480542,-0.07644038224867536
0.07746326139288812,-0.07572482595754824
0.1614224814614605,-0.04520641771823108
0.1634118188808023,-0.04447652227605548
0.16545061122695404,-0.04372786395219643
0.14985408797337385,-0.04945742499789339
0.15064754028887953,-0.04917057538114249
0.18574395956689255,-0.036494139924817336
0.18098946148224354,-0.03807728193539567
0.22589529980504508,-0.021825564889688398
0.34874866148828665,0.04459471789960081
0.3515622666509625,0.046017008716253416
0.3457025754459787,0.04285991168185321
0.34765579399699154,0.04379394548120479
0.34546922898066634,0.04264192131702415
0.3041383404361969,0.006848806763453969
-0.41015940526478767,0.016879042735238974
-0.4082062432305036,0.017248742049155653
-0.01933083070642725,-0.0968953496749662
-0.018898113027425247,-0.0970459853993522
-0.02159580986969009,-0.0961331364627816
-0.020982481838089716,-0.09632973273163578
-0.01685841244886746,-0.09778044466134098
-0.03707546825794399,-0.09059088890712566
-0.03460288249261531,-0.09157804731675676
-0.03263865540207815,-0.09232849573493901
-0.015092248285441524,-0.09842090532285025
0.04243222735480898,-0.08850840062790638
0.04426619560333661,-0.0878264283923178
0.040734535298533874,-0.08916317227589818
0.020493857709917192,-0.0964654568089909
0.020947315130002038,-0.09631693489302416
0.022010321259460022,-0.09597610532510024
0.07355355765508327,-0.0771370927221558
0.07159979266115651,-0.07784621319956427
0.0696867713787833,-0.07854583234024595
0.05012678204015894,-0.08569711964212433
