"Plane Section: Position[X] (m)","Plane Section: Position[Y] (m)"
3.5,1.7834144277972298E-4
3.27,1.8052394477464158E-4
3.04,1.8715579492290131E-4
2.8099999999999996,1.9749297732391197E-4
2.58,2.1250650478062951E-4
2.3499999999999996,2.3971444906463978E-4
2.12,2.756135691231416E-4
1.8900000000000003,3.2202103899706656E-4
1.6600000000000004,3.942726094842534E-4
1.4300000000000002,5.019112819063431E-4
1.2000000000000002,6.142581899092308E-4
1.1760000000000002,6.741325663466892E-4
1.1520000000000001,6.955253161421581E-4
1.1280000000000001,7.221729976225271E-4
1.104,7.515498233324662E-4
1.0800000000000003,7.813789734452612E-4
1.056,8.122685937880003E-4
1.032,8.43853172289386E-4
1.008,8.801642235276912E-4
0.984,9.179016175965257E-4
0.96,9.555857104306538E-4
0.9359999999999999,9.990314386230166E-4
0.9120000000000001,0.0010465651856075404
0.888,0.001096195556716137
0.8640000000000002,0.001150391990970596
0.8400000000000003,0.0012107801706251868
0.8160000000000001,0.0012755194144213671
0.7920000000000005,0.0013482157215597358
0.7680000000000007,0.0014263277996893887
0.7440000000000007,0.0015127938415269331
0.7200000000000004,0.0016117024326921443
0.6960000000000006,0.001724337091585035
0.6720000000000004,0.001855567467365329
0.6480000000000005,0.0020032340409133218
0.6240000000000003,0.0021776087956812333
0.6000000000000003,0.002407458332817411
0.5760000000000003,0.0027476938835547292
0.5520000000000002,0.0032814592053650067
0.5325059905165983,0.004000000000000449
0.528,0.004181493291505398
0.5040000000000001,0.004936936873461344
0.48000000000000015,0.0056737295308651806
0.45600000000000007,0.004209375154701716
-0.4800000000000002,0.005671911352174066
-0.456,0.004229881719267599
-0.5040000000000002,0.005007822338026144
-0.5337743295873851,0.003999999999999065
-0.5519999999999998,0.00329862632195532
-0.5280000000000001,0.004242204890972226
-0.5759999999999998,0.002769601540218194
-0.6,0.0024273987838825087
-0.624,0.0021844462673622604
-0.6479999999999999,0.002004296918774357
-0.6719999999999999,0.001860397810284543
-0.6960000000000001,0.0017259962338484936
-0.72,0.0016130703989413672
-0.744,0.0015153199277331071
-0.768,0.0014256289448944348
-0.7919999999999999,0.0013474454652902335
-0.8160000000000001,0.0012753711635398496
-0.8400000000000001,0.001209746563395492
-0.864,0.0011500134009098184
-0.888,0.0010958148426719033
-0.912,0.001045211717530164
-0.936,9.986346880075285E-4
-0.96,9.547627805677408E-4
-0.984,9.159440437813108E-4
-1.008,8.791335950481404E-4
-1.032,8.442891949664431E-4
-1.056,8.114510646280624E-4
-1.08,7.784398560364833E-4
-1.104,7.492374435476998E-4
-1.1280000000000001,7.204161238217623E-4
-1.1520000000000001,6.997427540807981E-4
-1.1760000000000002,6.763030903329887E-4
-1.2000000000000002,6.117526557046963E-4
-1.43,5.009336170246275E-4
-1.6600000000000001,3.937727406516799E-4
-1.89,3.22771152979484E-4
-2.12,2.7398121499540274E-4
-2.3499999999999996,2.392051578992843E-4
-2.58,2.1325010212497623E-4
-2.8099999999999996,1.9749265450838918E-4
-3.04,1.8756652638435647E-4
-3.27,1.8075938298439144E-4
-3.5,1.786002605831653E-4
-0.2864272150221438,0.026358979865855815
-0.2883256577966103,0.027049659012754933
-0.28448586987907254,0.025652714122276085
-0.28252074912779124,0.024937815197705437
-0.28056749906817485,0.024227279365704596
-0.2999766358878102,0.03128510764021207
-0.3012409014884133,0.03174378369384956
-0.26103532281456043,0.017121030071686173
-0.25908221710589036,0.016410097705425356
-0.25721355893110553,0.0157298939352868
-0.27869575137317437,0.023546474315489577
-0.2687968588552576,0.019946061592777335
-0.2690150338761132,0.020025465064208166
-0.26300299984221126,0.017837252359261254
-0.2649415492703217,0.018542853493435707
-0.29439407819758484,0.029254972867345887
-0.29617640123160627,0.029903239541938114
-0.2902803353339965,0.027760107287830488
-0.2922868690104319,0.028489494568376905
-0.28838044021159526,0.027069570878089158
-0.29807621016800634,0.03059433011575364
-0.3016467180036885,0.03188997815552551
-0.2551760169055873,0.014988202159533434
-0.2532229207845466,0.014277243455908473
-0.25143363048733247,0.013625796357235372
-0.27666092032102235,0.0228064236937773
-0.27470756348523934,0.02209618117753023
-0.2729146534627561,0.021443830959101982
-0.27080104518882514,0.020675159446506487
-0.2668946712448429,0.019253741177154386
-0.3029310497656663,0.03235632210110918
-0.2357325167811074,0.007910196955724733
-0.23759822175189418,0.00858938171261761
-0.24731526993165176,0.012126710253672826
-0.2493167383567087,0.01285529908884887
-0.23955130514062256,0.00930037539209847
-0.3033584333395296,0.03250993133523864
-0.23173897305261082,0.006456396644593548
-0.2336920557203336,0.00716739230468481
-0.2299532148725003,0.005806208977084577
-0.22783281133891864,0.005034395375400907
-0.22583391902879557,0.004306716740404461
-0.2454105611408334,0.011433340404372268
-0.24345747456630973,0.01072235547632489
-0.24152164528548326,0.010017648210557211
-0.3034453172850861,0.03253682148299342
-0.21425158990173496,9.022807870252012E-5
-0.21611433426674864,7.683694024004854E-4
-0.223926650721806,0.0036123910938876203
-0.22197357100135845,0.0029013873375892643
-0.22004044515133325,0.002197641072430376
-0.21806741369568383,0.0014793739594945092
-0.303509252110489,0.03254543314310457
-0.20847293043773468,-0.0020136175593136484
-0.21025511130872615,-0.0013646863772727807
-0.20435268469806445,-0.003513585069457009
-0.2063489843047182,-0.0027867829944846594
-0.21220818832831273,-6.53675201665129E-4
-0.30356325799302347,0.032542887302105965
-0.20323511588391052,-0.0039204943319541925
-0.3036834413986309,0.03255623861644913
-0.1895255142202611,-0.008916701217172278
-0.19072596392188773,-0.008479256014477096
-0.20049009705951923,-0.004920760982401255
-0.20244294361317133,-0.004209116713355253
-0.19855994431714538,-0.005624265271365749
-0.19277212578330416,-0.007733712721355406
-0.1946316579515187,-0.007055970010030516
-0.30398640533763477,0.032629539756529366
-0.18486761108470343,-0.010614702029377986
-0.18287408482425138,-0.01134111158000362
-0.18877315998338504,-0.009191017347992693
-0.18699507485781272,-0.009839989091969169
-0.19658447247629748,-0.006344237757191994
-0.3045349173415216,0.03279120732852164
-0.17900902589220918,-0.01274950976068306
-0.17708147430436524,-0.013451727939733149
-0.1731502720066207,-0.0148838540894834
-0.17510316173335821,-0.014172328417568603
-0.17129368583321902,-0.01556041900065245
-0.18096191639530337,-0.012037986221430142
-0.3054281209186349,0.033081535069686155
-0.16924449696630822,-0.016306917556345644
-0.1671899470684992,-0.017055259644197435
-0.16333735754042533,-0.01845823497523719
-0.16338553206038137,-0.01844068220906729
-0.30554147200024584,0.03290077465930499
-0.1654263024059365,-0.017697460297567524
-0.16139468743344165,-0.01916643483481863
-0.3085917479760867,0.03185661218158102
-0.3066386158792439,0.03198783634844242
-0.15166861909136234,-0.02271100479726545
-0.14981497338958255,-0.023386327109076507
-0.15947986492865213,-0.01986404210244799
-0.15752711490232477,-0.02057595153352905
-0.155602393960945,-0.021277491035289274
-0.31054489162726306,0.03151165666680829
-0.31060190314791225,0.03149484191639632
-0.3085918237508421,0.030454935450969105
-0.30673269625975397,0.02954150774390934
-0.30351288238870683,0.027588208677663723
-0.30468569116896577,0.02828283677757815
-0.1457109890223336,-0.024882027467195846
-0.14776277030120893,-0.02413386567219887
-0.1419044800943191,-0.026269483733457142
-0.1439473364854139,-0.025524924309996446
-0.1536213944390215,-0.021999164924275515
-0.13991621409741897,-0.0269942837380249
-0.31054489415835435,0.031464836696997914
-0.3066387512982341,0.02948286426840664
-0.3027326431398178,0.02685898194883946
-0.30167989675619583,0.025634984583460207
-0.137998816547529,-0.027692853474734058
-0.13647548177279756,-0.02824913413579192
-0.13018966206550284,-0.03054556115435307
-0.1283396559701045,-0.031221509992289977
-0.3007796218751685,0.024940039071495914
-0.2993952847519463,0.023681736074298264
-0.12628475074816362,-0.03197099728140658
-0.1360465377048394,-0.02840605725444837
-0.13412563151824236,-0.029109597819300843
-0.13214223361856883,-0.02983316145450416
-0.29882658743249113,0.023264862533298004
-0.2969753320400346,0.02172848024860717
-0.12423566258057064,-0.03271876357614289
-0.11925095301955312,-0.03453790151180045
-0.12042724419472821,-0.034108768050632496
-0.2949205124044959,0.02002813566962826
-0.2968735496968655,0.021650598739153516
-0.2946452403045525,0.019775229280806633
-0.2926242144582572,0.017821995021137273
-0.29296748745640894,0.0181773288035873
-0.12247201382537623,-0.033362397312343174
-0.1184297559889098,-0.03483818895880112
-0.10686564995086739,-0.039060242035814846
-0.10871261855861356,-0.038385373977198704
-0.2910948797991077,0.015868787342330694
-0.1145713687142481,-0.03625101940215264
-0.11652330352756461,-0.03553687056850616
-0.11265174248930218,-0.036949573635966015
-0.11066524682114588,-0.03767313005911582
-0.0989495255265041,-0.04194672619500035
-0.09696610265083427,-0.04266871861852953
-0.10480708571622148,-0.03980910276544435
-0.10276039234635115,-0.04055564615223933
-0.1009971847024721,-0.04120122697820461
-0.29101449613686137,0.01570446334164525
-0.29017844525469194,0.013915612796952892
-0.09504548953604945,-0.04337456685835047
-0.09441010771565192,-0.043608496237500384
-0.29002518831524904,0.011962479509018228
-0.09117601887573125,-0.0447844848586967
-0.09146371150532123,-0.044681077143207994
-0.08723146520959282,-0.046213897001053925
-0.08918455981773699,-0.045502934141485776
-0.08558481387344266,-0.04682118081441855
-0.08332682318493762,-0.047640072879209246
-0.0848410099334815,-0.04709194884649677
-0.08127867083025482,-0.048374798869873836
-0.09309528895168265,-0.04409347964537591
-0.0754833777066108,-0.0504848482915496
-0.07746398054133671,-0.04976318532739813
-0.06390823187595547,-0.05471169983453854
-0.06574538434528016,-0.054028884065262565
-0.2907539659493402,0.010009393903942704
-0.08539005727277493,-0.04689456026787479
-0.0795127630994631,-0.04901370687631297
-0.0735557221817873,-0.05117942707844739
-0.07160197667934995,-0.0518886019214706
-0.06968839133874088,-0.05258667015109506
-0.06769636088024623,-0.05331210282636486
-0.06385252583727537,-0.054732417294847444
-0.292595988517212,0.0080563684809766
-0.2910148186112596,0.00973935191367721
-0.061855382726133425,-0.0554952773606026
0.26105885388965844,0.017034767900860885
0.2591059126846911,0.016323383470550918
0.25723750355912123,0.015642495308086375
-0.29296804613751853,0.007842880316310218
-0.06049255762003159,-0.055997169841171604
0.2649649251947641,0.018457017688983425
0.2630264255387002,0.017751279776266768
0.25520029809038186,0.014899878668781664
0.253247643401931,0.014187706908402209
0.25145888738842914,0.013534791571375692
0.23763204953359576,0.008474824446025887
0.23958372554478435,0.009189685552332513
0.2357676273126085,0.007792114733514107
0.2766848054378824,0.022719188085300764
0.2747313274540933,0.02200927869073361
0.2729383188491058,0.021357199435138856
0.2787198746000188,0.023458584226620158
0.2805919549819855,0.02413847493785675
-0.2961946401715858,0.006103438021518178
-0.29492122959397116,0.00676160928164472
-0.05981559150931174,-0.05624515373617369
-0.05599707632627388,-0.05763085093952152
-0.058048629771095574,-0.056886836457123946
-0.05401960567291443,-0.058353027947577775
-0.053943932226718054,-0.0583810754852509
-0.04428451888079285,-0.06191313821730575
-0.042449717398206195,-0.06259281539937334
-0.0034479633565416817,-0.07666300411867323
-0.003350193595163247,-0.07669822352900582
-0.005533858875517741,-0.07591600391685228
-0.00527874396583201,-0.07600686978784134
-0.0015945458365116422,-0.07733526091773892
-3.93172356833102E-6,-0.07791381866317326
0.2318513122410319,0.006357284771801687
0.2337285409814519,0.007045532367752763
0.2708245822166476,0.020588880827933566
0.26882034471490635,0.019859923690091055
0.26691807459619254,0.019167830008011595
0.25102689318639443,0.013377068305585462
0.24934322019821134,0.01276092823739838
0.24734300266128573,0.012028902003450899
0.24543937577387964,0.011332559115569836
0.24348740138871094,0.010618517922916824
0.24155277957536925,0.009910492572972116
0.28325570245408116,0.025105422502371248
0.28254565484894323,0.02484777461088935
0.29620778080761856,0.02979915776752873
0.2944241200354893,0.029151254434231125
-0.2968744021539582,0.005881900342875023
-0.30468699133666405,0.004232415338458119
-0.3027338536781676,0.004466518648211779
-0.3007807093711398,0.004823606061844594
-0.29882755846193587,0.005302820103923685
-0.05805021145485789,-0.05688626481711087
-0.0520958002208259,-0.05906627304907075
-0.05014907255511154,-0.05979472599658896
-0.04824074789165929,-0.06049866594079028
-0.04624165499873478,-0.06121327744677863
-0.04038835430740458,-0.06336260178337087
-0.038351381288462785,-0.06411239359650332
0.009092207197262574,-0.07461727209128663
0.009400810428056312,-0.07450660031343123
0.01102753879517886,-0.0739304356903436
0.011266309400495672,-0.07384622476961386
0.00714951207487601,-0.07531836134842887
0.0033433236450395487,-0.07669681259141639
0.004799662894472355,-0.0761686684769092
0.005269999873516965,-0.07599840536126663
0.0015871653206930357,-0.07733520764506073
-0.007152703886242607,-0.07534519048433214
0.08612955149621838,-0.04667217747270477
0.08724067355524909,-0.04626082360688891
0.23177711095669146,0.006329995305617055
0.22999405263480327,0.005672388524178708
0.2278754698131445,0.004895571701433623
0.2258786627038643,0.004162163018633866
0.21565805782469205,4.0198835281020676E-4
0.2161710057581097,5.910385524886311E-4
0.29030863681085517,0.027660643482218566
0.2923157905272306,0.028388231178314363
0.2864541682362962,0.02626331074784283
0.28840817660284046,0.026971734698302753
0.2845117035417561,0.025560123259147978
0.2981135760048615,0.030489989958900385
-0.30609443690244886,0.004150848202463967
-0.31640573166467867,0.004411643821033404
-0.3144526128565905,0.004297053433804942
-0.31249949337752214,0.00419487478483564
-0.037415629266665446,-0.06446032532604454
-0.03267039474910439,-0.06628138140757073
-0.03454767845232034,-0.06554660673765875
0.012617257649546635,-0.07338234704691307
-0.007162932591975804,-0.0753416716289318
-0.008586537497001254,-0.07485097555891299
0.06770439501433027,-0.05335579920728155
0.0657505189227987,-0.054064614625846684
0.06391116838251878,-0.054741394432138865
0.0598067526396804,-0.056242503341332156
0.06184792580713595,-0.055496422268213275
0.05804235593887821,-0.056886316192375594
0.05599079902420192,-0.057635238350785656
0.054013573563451385,-0.05835808985720303
0.052817849711290846,-0.05879460601785991
0.0891952278094497,-0.04555387173833449
0.08540228572563512,-0.046949789049075756
0.0754952763225141,-0.050539166110934654
0.07747700414215623,-0.04982059430483566
0.16343125087279708,-0.018587920910238004
0.16143996372202096,-0.019312457847250993
0.1654741065542829,-0.01785042924439147
0.1498631543904245,-0.023540333646296718
0.15171385104566928,-0.022856907339695087
0.16630143431942063,-0.017559331832390074
0.22397349662302982,0.003462060541141759
0.22202260813199431,0.0027450353770726225
0.2200918505292234,0.002034781268309668
0.21812139382931126,0.0013094388400001983
0.21431111376113715,-9.494095297938572E-5
0.20854156491905798,-0.0022238222030700767
0.21032065450820192,-0.0015663962851206856
0.20442815750777474,-0.0037425811213687337
0.20642105719313342,-0.0030064362063554366
0.20252179824727495,-0.004447405945731871
0.20057317432040495,-0.0051706539951884515
0.19959318486099828,-0.005537801485271626
0.21227071118080537,-8.470853342969446E-4
0.3000214165230204,0.031180241184846066
-0.3113806210000215,0.004151133973999117
-0.3066401222374925,0.004123314916348603
-0.3085932484258559,0.00410138543843587
-0.3222650976495013,0.004578564248170751
-0.3203119742939227,0.004548093184965802
-0.3183588519985455,0.004498010456253269
-0.3242182220071695,0.0045904988441325114
-0.03659120299832089,-0.06476855689531488
-0.03258948326841338,-0.06631362937156884
0.013012587380547702,-0.07324803502660976
0.014652933869349839,-0.07268316290585745
-0.010437201441523276,-0.07421889408739045
-0.00911983959447233,-0.07467512276114233
0.04243956219599426,-0.06258655582399378
0.04427750684562185,-0.06191551235006107
0.04037624226005589,-0.06335097071280552
0.03834226443129485,-0.06410899562138167
0.016856322604231238,-0.07191652118645658
0.018899068637654698,-0.07119043260007843
0.07356878802285899,-0.05123695027324956
0.07161414023409861,-0.05194364511449584
0.06969854970762426,-0.052636203684068614
0.05208636083910764,-0.05906197585393601
0.05013428783129328,-0.059775746037522844
0.048225759701972945,-0.06047912965263472
0.046232640502682894,-0.06121015264552704
0.09013114865703495,-0.045215960196215293
0.09118794854045814,-0.04483889135296546
0.09310833365225962,-0.04415095243444515
0.08334373739500844,-0.047708176220688105
0.08129515559268523,-0.04844171892417698
0.0781094413158015,-0.04959076785917464
0.15952480077071524,-0.02000912978715965
0.1634244040343342,-0.018699946846913357
0.16346578905287684,-0.01868282974055229
0.1575724969496211,-0.02072226570981508
0.15564767019497366,-0.021423514739721414
0.16548756665557307,-0.01788741678879547
0.14050005888715494,-0.02704232268184851
0.1419767703463779,-0.026489742215335454
0.15366587356390082,-0.022142998413789743
0.1496772428033219,-0.023609024972538736
0.1457735157251675,-0.025075455711925022
0.1478234302334105,-0.024322163735758837
0.14401279609779694,-0.025726412303913534
0.18888531547438903,-0.009520817254384584
0.19083232961268595,-0.008793145603273862
0.1871133799596107,-0.010186688292227245
0.19287321875533062,-0.008033112959754812
0.19472852061963686,-0.007343745353294219
0.1857849157147644,-0.010703211733938926
0.19864860868199663,-0.00588951160096622
0.3017129296058793,0.031790814647759194
-0.3105463720394749,0.004127083401296374
-0.3281244734269163,0.004564341971795732
-0.3261713473287426,0.004584603146216804
-0.019062645635269798,-0.07114138870463878
-0.018908653621115684,-0.07119511476512602
-0.021613315493662008,-0.07030650608045812
-0.020999042056513192,-0.07049540346860111
-0.016866068266583406,-0.07192164864865394
-0.03069106778250656,-0.0671047254800349
0.015082554959122588,-0.07253605371012378
-0.015097633940591361,-0.07255587360774024
-0.013039018870489246,-0.0732992746739736
-0.011063090540153912,-0.07400783482242031
0.03657999095228612,-0.06475940607616289
0.03614162649557247,-0.06492565913633899
0.019855404416395772,-0.07085236215309695
0.022545919652120404,-0.06996689716664953
0.020980275327417874,-0.07046550821637818
0.10486216290954198,-0.03998207187614246
0.1028068248658543,-0.040704860699741496
0.10043302974754238,-0.04152943798192669
0.0989783743563207,-0.042047623026210526
0.09699058225101054,-0.042757609096302426
0.09506424245978778,-0.043447722796511684
0.07952771945437279,-0.0490764258213116
0.1149028616305829,-0.03635737349200755
0.11463624853428471,-0.036450924297939
0.11271578984231578,-0.037147190923312694
0.10723711153675561,-0.03914700904882777
0.10877279988582146,-0.0385723682763212
0.10677147341560936,-0.03931645895829025
0.16149873511359247,-0.01947395807735068
0.13999603979989772,-0.027235249517806807
0.19667730739777553,-0.006620944809287687
0.18499955804390797,-0.010998888341584528
0.18301220203851848,-0.011742253625206462
0.17723774260399094,-0.013902748746835409
0.1791587977301815,-0.013182678491854786
0.30198920729657874,0.03189457956371154
-0.33398385465694375,0.004449257689589582
-0.3320307269195698,0.0044998406752391395
-0.33007759999005576,0.004535479919215638
-0.33593698394129295,0.004370058862309413
-0.02285487814286177,-0.0699950003887157
-0.030160053048704772,-0.06733568692320205
0.03454102021683719,-0.06554997969552605
0.0335079773535031,-0.06597770555912148
0.022847715753067824,-0.06988517872643
0.02457748205043406,-0.06936804993889667
0.10103308412817634,-0.041321498357512323
0.12434621399202946,-0.03304416686396617
0.1263834019071866,-0.03226369881307941
