"Plane Section: Position[X] (m)","Plane Section: Position[Y] (m)"
3.5,9.512577573427716E-4
3.2700000000000005,9.651609407611588E-4
3.04,0.0010035192118142936
2.8100000000000005,0.0010573412137572216
2.58,0.001147002821190478
2.3499999999999996,0.0012951674584633299
2.1200000000000006,0.0014902372693977187
1.8900000000000003,0.0017563815119606345
1.6600000000000006,0.002160865732188668
1.4300000000000002,0.0027613954954027204
1.2000000000000004,0.003423575713418366
1.1760000000000002,0.0037829484937138102
1.1520000000000001,0.003963079403821113
1.1482307232309275,0.003999999999999825
1.1279999999999997,0.00419690979749387
1.104,0.004430707530581028
1.08,0.004702828462920098
1.0560000000000003,0.0049520685826704314
1.032,0.005206808142062296
1.008,0.005487123170188456
0.984,0.005754202622185987
0.9600000000000001,0.006044928635024822
0.9359999999999999,0.00636570548625741
0.9120000000000001,0.006706724613371319
0.888,0.0070869589650050845
0.8640000000000003,0.007512745955271887
0.8400000000000001,0.00798407499084999
0.8160000000000001,0.008500229819218863
0.7920000000000004,0.00911505926440368
0.7680000000000005,0.009781276053461574
0.7440000000000002,0.010515436281726822
0.7200000000000003,0.011328631438680303
0.7023970152953802,0.011999999999999799
0.6960000000000002,0.012251308954063803
0.6720000000000002,0.013469173575583693
0.648,0.014843709000010143
0.6240000000000002,0.016398453899503382
0.6000000000000001,0.01832240454484583
0.5846770017852077,0.019999999999999032
0.5760000000000003,0.0209911673022109
0.5520000000000004,0.023937462002051567
0.5280000000000005,0.026805923240913417
0.518794356077876,0.027999999999998706
0.5040000000000004,0.029881790312110468
0.4800000000000004,0.03474657121458792
0.4760350427232407,0.035999999999997895
0.45600000000000074,0.04239649397231575
-0.4760113659942943,0.035999999999996125
-0.48,0.034741315417660984
-0.5189490046509868,0.02799999999999711
-0.5279999999999998,0.026827922180562652
-0.504,0.029891688431478748
-0.4559999999999997,0.041719501629883526
-0.5519999999999999,0.023968046811627938
-0.5850005277686037,0.01999999999999786
-0.6000000000000001,0.01833002585295853
-0.5759999999999998,0.02104332335262704
-0.6240000000000002,0.01638068054673761
-0.6480000000000001,0.014804624913822216
-0.6720000000000004,0.013494680054668784
-0.7027549124231599,0.011999999999998737
-0.7200000000000003,0.011275271688611734
-0.6960000000000003,0.012292821098052024
-0.7440000000000003,0.010465135566505294
-0.7680000000000002,0.009742548354417159
-0.792,0.009080389132189611
-0.8160000000000002,0.00847976708763628
-0.8400000000000002,0.007952300900134126
-0.8640000000000001,0.0074776742623856324
-0.8880000000000001,0.0070519848756928
-0.9120000000000001,0.006660696279619131
-0.9360000000000002,0.006328997205553544
-0.96,0.006018175865807921
-0.9840000000000001,0.005717202160568612
-1.008,0.005454308815685867
-1.032,0.005190361068112237
-1.056,0.004940815578627796
-1.08,0.004703534711622106
-1.104,0.004457983690949326
-1.1280000000000001,0.0042413293407589075
-1.1527206874176774,0.00400000000000003
-1.1760000000000002,0.003824636981145931
-1.1520000000000001,0.004005495799742556
-1.1999999999999997,0.0034606669901306947
-1.4300000000000002,0.0027757407464236786
-1.6599999999999997,0.002168809313600961
-1.8900000000000001,0.0017646757962488163
-2.12,0.0014847303717987924
-2.35,0.0012875319104442172
-2.58,0.0011537367628730048
-2.81,0.0010642425649893688
-3.04,9.994581494821742E-4
-3.27,9.63152218398021E-4
-3.5,9.563686156482982E-4
-0.3016579141315366,-0.029585699214041097
-0.2999910334962902,-0.030192402552765903
-0.3554791891066365,0.017440967377449754
-0.35506628474876223,0.016889370569880716
-0.35784312676365543,0.020796050378282967
-0.2944107608780837,-0.032224988222791254
-0.29619278012361694,-0.03157610825342346
-0.29230415601897575,-0.03299207716847457
-0.2902980334480016,-0.033722588850836704
-0.28839855597099784,-0.034414272071467286
-0.28644553994101163,-0.03512543758109739
-0.2845044060005096,-0.03583228347057481
-0.2825395056173442,-0.03654778772021336
-0.28058649510296857,-0.037258981552009504
-0.30329330555099676,-0.028988966070868247
-0.298092034956743,-0.030884418742749945
-0.35280990907043397,0.012982771312144103
-0.34938930052338957,0.00907599187037185
-0.351573868044613,0.011438467927646603
-0.359384653774225,0.022515580457702293
-0.2787150037294924,-0.03794049068797651
-0.3033593228030609,-0.02896503740752752
-0.347848942385215,0.00712262845142599
-0.34632610950321846,0.005169267744793173
-0.34766831645129154,0.006925512843268644
-0.3613287400595463,0.024702839880608358
-0.2610563491741721,-0.044370807868038285
-0.2591033404546261,-0.04508200662873324
-0.2572347667402708,-0.045762442382646665
-0.27668046981366634,-0.038681357515500316
-0.2747274496652907,-0.03939252489083729
-0.2729347251891066,-0.04004538476641656
-0.27082141835804663,-0.04081488432811564
-0.26881746199285267,-0.04154461387746816
-0.2649623742737566,-0.04294843138355905
-0.2630239269359428,-0.043654312929471806
-0.3034551808556093,-0.02893281701293946
-0.3457155619933655,0.0045311581669152876
-0.3444573255528803,0.0032158534965902367
-0.34253671350903425,0.0012624312271442653
-0.3437627457410107,0.0025360791710957184
-0.3632900413089082,0.02808857650320219
-0.36359498319238104,0.02860944066549861
-0.2551973133393062,-0.04650437757769177
-0.25324430343265725,-0.047215573078414834
-0.25145508054430404,-0.04786720529583099
-0.2669153898159567,-0.04223725135893634
-0.30351762681313876,-0.028914339513404587
-0.3418099367860655,4.938490437060118E-4
-0.34067610208571225,-6.90981756227223E-4
-0.33880589634308106,-0.0026443962244757377
-0.3398571259342952,-0.0015361250227864396
-0.36564317351854003,0.032516007703158205
-0.23575462017287907,-0.053584599131116614
-0.23762023689258566,-0.052905171996286304
-0.24933828268042454,-0.048637961501319854
-0.24733689544449103,-0.04936677332835963
-0.23957323946230183,-0.052193956347213126
-0.3036698037079544,-0.028864325951196302
-0.3379043130572844,-0.0035530132892472553
-0.33683154026857776,-0.004597826811688502
-0.33486199241021763,-0.0065512566547500884
-0.335951484075889,-0.005465845445068713
-0.36719525315789614,0.0347967400591489
-0.36828899887356037,0.036422667234586995
-0.23176122409018707,-0.05503880495663167
-0.23371423352418522,-0.054327608157940396
-0.22997554908150414,-0.05568922102198008
-0.2278552463882123,-0.056461311602279414
-0.2258564296928693,-0.057189197913458056
-0.2454322660189049,-0.05006036115804638
-0.24347925782520924,-0.0507715613627982
-0.24154350911396477,-0.05147648991439423
-0.30381830323500675,-0.028817774365912763
-0.33277313848362183,-0.00850470496237496
-0.3339986560623378,-0.007384931189615153
-0.37088186088533215,0.040329318569075755
-0.21427456862651967,-0.06140697208174241
-0.21613722354202491,-0.06072858509857265
-0.22394922681256893,-0.05788370325635077
-0.22199622934704646,-0.058594932922323
-0.22006319340780003,-0.05929892611924614
-0.21809022727636673,-0.060017372647738584
-0.30400561332012027,-0.02875937297189632
-0.3320458096001013,-0.009184813451659073
-0.3305986687620238,-0.010458166520441618
-0.3280957106864,-0.012411678917442168
-0.32814005317518163,-0.012374279093079402
-0.3711005811574236,0.04075441386074738
-0.37241418026148043,0.044235805767286855
-0.20913662471465552,-0.06327814436844177
-0.21027824738352152,-0.06286231868874033
-0.21223125077167798,-0.06215110528723081
-0.3042449454904572,-0.028684673796892025
-0.33009295078592416,-0.010904885460169265
-0.32618716582500007,-0.013909969838439189
-0.32567903749680777,-0.014365177960447464
-0.323429751780526,-0.016318651097508456
-0.3242343025205994,-0.015601028870825737
-0.37317013874636396,0.04814217281097887
-0.2084962173516043,-0.0635116640817429
-0.20637254717771075,-0.06428558738180787
-0.20437650784971653,-0.06501310422992079
-0.30451404147324235,-0.02860137691930645
-0.32119619303546254,-0.01827212180056291
-0.3222814471699934,-0.017343480230628948
-0.37500512306591577,0.05179130024734238
-0.2005142485101824,-0.0664211814670937
-0.20246687480213715,-0.06570893250102638
-0.19858426817992256,-0.06712515901681868
-0.3050171308276304,-0.028432562388096456
-0.30548261348808486,-0.02827537278607216
-0.3055231082047803,-0.02826524512671208
-0.3203285795859743,-0.019006887126988732
-0.3185155525817699,-0.02022566169681518
-0.3157194149256452,-0.022179219468138885
-0.31642273227697826,-0.02160911854730004
-0.37796304901994127,0.055955414685620805
-0.18489266954579497,-0.07211761165305212
-0.18289929011295897,-0.07284442425198936
-0.19075113878847255,-0.0699824859935175
-0.18879839473761925,-0.0706944115754233
-0.1870199257724577,-0.071342328796322
-0.1966088326162068,-0.06784523092450073
-0.19583095541789003,-0.06812882495662755
-0.19465623412185906,-0.06855755622709536
-0.19279697831847123,-0.06923605768309472
-0.30563690447545333,-0.02818524672772392
-0.3183756590429552,-0.02032810719620537
-0.314469845290618,-0.02314716009837691
-0.3129283987090247,-0.024132776446835785
-0.38084038921084906,0.06376836009452136
-0.38253786007526935,0.07158112289938938
-0.38281445119238977,0.07228650279528297
-0.38919989795554355,0.0872071541455775
-0.3854340271341278,0.07939407122205655
-0.3906243037786273,0.08939298510617603
-0.17746358752428826,-0.07482544078512202
-0.17903432832173483,-0.07425308887151563
-0.18098710732156298,-0.07354125926492013
-0.2730448294875259,-0.0403477482187791
-0.27484098163112824,-0.03970430124867959
-0.2752763920226511,-0.0396040851952838
-0.27112828111361825,-0.041114601170332096
-0.30575638672157895,-0.02811771972802183
-0.3066580172554774,-0.027489567520318912
-0.3061744224150059,-0.028040071781671873
-0.3125169155073272,-0.024408675515113464
-0.39413506443295143,0.09502041803669106
-0.17710684657924514,-0.07495549874089168
-0.17317582513770713,-0.07638812132282936
-0.17512861108451158,-0.07567631079370671
-0.17131969446743028,-0.07706593694927502
-0.27487189005845125,-0.039789180576067264
-0.2731059151774039,-0.04051549898187967
-0.27098154284288256,-0.04125461095767314
-0.27143110509935536,-0.041212570114891066
-0.2714008866519982,-0.04122603406496137
-0.2690152039932916,-0.04208764402966058
-0.3105639594364109,-0.0255003372732959
-0.3096663086943023,-0.026086406331889564
-0.30861102987249345,-0.0267632701254836
-0.39843483642758476,0.10210534130079754
-0.3990056767391962,0.10283367193699072
-0.41236936333325247,0.09502324009203249
-0.4122554478606181,0.08721072236819541
-0.16927096021659166,-0.0778136838370171
-0.1672164750502093,-0.078562203603284
-0.16142119461342247,-0.08067332134061607
-0.16341219818321256,-0.07994800544794002
-0.27102389134217514,-0.04137090649410174
-0.26893016759754096,-0.04212573532258547
-0.26901855364142063,-0.04209684268209281
-0.4140625216217506,0.08475655993838263
-0.40540222159370537,0.11064716200025412
-0.414060371851696,0.0986469855148859
-0.4165950016507062,0.10283639417208135
-0.15169439904696022,-0.0842158932863395
-0.14984065200153895,-0.08489093717355385
-0.159506379964087,-0.08137095005818061
-0.15755346297233264,-0.08208240071758911
-0.15562858114181027,-0.0827834981796852
-0.16545290867772003,-0.07920461923176876
-0.4296921010500005,0.055168461286206616
-0.4290457453820039,0.05596332056656354
-0.4335990213318906,0.05083783487407456
-0.4323758093231823,0.05205758590152826
-0.43664221261315694,0.04815199615029339
-0.42187572849428745,0.08018981057368135
-0.40624581097093165,0.11196246142325103
-0.42087835182144673,0.11064955718397823
-0.145736483060052,-0.08638613025102121
-0.1477884516862891,-0.08563848325391464
-0.1419302029185754,-0.0877742143718236
-0.14397287576560067,-0.08702915112334475
-0.15364746412382316,-0.08350484929158021
-0.13994234122789495,-0.08850012441628562
-0.4375057925386263,0.047470435862556115
-0.427507815481575,0.059869332593586885
-0.42300214150379134,0.07939988550087469
-0.13943291638762348,-0.08868647087280793
-0.13021792041009592,-0.0920572517243109
-0.12836772593406423,-0.09273268258084472
-0.4414122841108821,0.045909854218633014
-0.4271970857634193,0.06377553454986598
-0.42657262142190544,0.0715879379973652
-0.12729966947164265,-0.09312323604960682
-0.13802671743725223,-0.08920356504128883
-0.13607486016822015,-0.0899179258633781
-0.13415318991130615,-0.0906193670221328
-0.13217014079554684,-0.09134388807613164
-0.4453187037008617,0.044814375549733707
-0.4271909077965595,0.06658803373916046
-0.42751070067304564,0.06768183322097637
-0.12631426130679946,-0.09348612560096395
-0.44767163439025504,0.04424745308654004
-0.44922509944030087,0.04387300366430651
-0.12426752389332052,-0.09424034695567118
-0.45313145711487324,0.04317758235983698
-0.12250558257871065,-0.0948886691706298
-0.12063357994586726,-0.0955784092707262
-0.11846785352906716,-0.09637689644629666
-0.12046309386842019,-0.09564130314569214
-0.09897555215264078,-0.1034522806558891
-0.09699017186695554,-0.10416889776963739
-0.10690697697439083,-0.1006078149502784
-0.10875486265723928,-0.09993546598786565
-0.10102491765091381,-0.10271146725608205
-0.45703804318762214,0.041006399572953656
-0.114613158840599,-0.09779986508066091
-0.11656268608360748,-0.09707910564631986
-0.11269561074616281,-0.09850412628208338
-0.1107087087273244,-0.09922656672141698
-0.09506475167389919,-0.10486154320976257
-0.09311245185573987,-0.10557468872343215
-0.10484630117628285,-0.10135087717634811
-0.10222531855899653,-0.10228169505734103
-0.1027936852868026,-0.10208115602948135
-0.45899132898380235,0.03996758963786252
-0.4583096918754984,0.04034284945277039
-0.09119937382430868,-0.106282700401138
-0.08726001231830333,-0.10772637288719894
-0.08921229638979115,-0.10701318413074384
-0.08541591091808184,-0.10839963665784039
-0.0833551384365854,-0.1091519107941919
-0.081309743176024,-0.10989421122960619
-0.07551529263838612,-0.11200657450911643
-0.07749562902142794,-0.11128417997901599
-0.06577813655040415,-0.11555290996762879
-0.06568219282039427,-0.11558871032695481
-0.4609445746737609,0.039187920205119874
-0.07954506124319001,-0.11053648658398016
-0.07359025251101485,-0.11270833758978122
-0.0716366891046188,-0.11341801309448533
-0.06972182092361309,-0.11411255807132738
-0.06772972619121104,-0.1148378141969893
-0.06394394337983472,-0.11624384857711553
0.2961641330363478,-0.03168593449142607
0.29438161890437126,-0.032335550181751334
-0.46485096020616395,0.03831249957795078
-0.06197958838694191,-0.11697861706422186
-0.0061250146294770285,-0.1372093920887633
-0.005303324653500267,-0.13750719550665122
0.26103893716883364,-0.04451373817778213
0.2601623691020722,-0.04483554715684359
0.276654070805811,-0.03879958201723417
0.27470151579873425,-0.03951202825088988
0.27290960298562267,-0.04016711953424519
0.29227493090568324,-0.033102761383242904
0.29026906834575883,-0.033833855140431635
0.28641698084636963,-0.035237724983924974
0.2883698806596658,-0.03452625532343426
0.28603629069514874,-0.03537650531648509
0.27868840134677025,-0.03805815584894116
0.28055972672679236,-0.03737619013908077
0.298067040814978,-0.03099286705039586
-0.46875736281938885,0.037326713726909946
-0.06188617150175443,-0.11701389752905772
0.012959006431097304,-0.134703993869288
0.01501679435619041,-0.1339585600889593
0.010986648432297293,-0.13542123527030364
0.005236109403238121,-0.1375077506752697
0.0068844009768375646,-0.13691000938342465
-0.0033778644458577803,-0.13820635153656846
-0.00718209862759641,-0.13682761723267084
-0.0016238435950198969,-0.13884595108617187
-6.521196215049942E-4,-0.13920232224925227
-0.008530021650429695,-0.13634184079717243
0.01552693900607255,-0.13377411777308051
0.016784180716425852,-0.13332149740364024
0.018822829958081433,-0.1325841526125733
0.2708755596629469,-0.0409103987567617
0.264943151888419,-0.0430863847238975
0.2630054733322378,-0.043794379790478316
0.25908920837858895,-0.045233953118890044
0.257225031036284,-0.045926473905568185
0.2999667081041925,-0.030297487619247485
0.28447660378379563,-0.035946649896585275
0.2825124857051928,-0.03666430458198529
-0.47090598281729423,0.03643854888759155
-0.059098728677211804,-0.11802766920117365
-0.05807780173388808,-0.11839609987866327
-0.059844659106847234,-0.11775904528857546
-0.056025299153222435,-0.11914242388779053
-0.05499030512513957,-0.11952373320326438
0.009056940874988088,-0.13612347568190128
0.00711506627343754,-0.13682660729884713
0.0033100610905597975,-0.13820687265617168
0.0015552100593499098,-0.1388472578953334
9.548705708257925E-4,-0.1390671427508935
-3.471334900859159E-5,-0.13943101242598274
-0.013031947789679893,-0.13471390049196438
-0.013438650990906399,-0.13456671728393424
-0.011058992289456813,-0.13543054365464413
-0.009126821687100373,-0.13612798347788385
0.022760248110154556,-0.13117350238312467
0.022736230736068577,-0.13118204997991495
0.019859963387307923,-0.13221011572215532
0.020896490035863375,-0.1318384930565098
0.1894940648125985,-0.0705859364247007
0.1887823833739531,-0.07084121226870449
0.18700255487402873,-0.07148539291598482
0.18487617689560917,-0.07226309077426998
0.1842377062742294,-0.07249817324908665
0.27079723424779395,-0.04093919799867492
0.2687945840860466,-0.041672518338236555
0.26689452924349416,-0.04237070135931588
0.25529269297862844,-0.04664872611931767
0.3016449474101161,-0.02968611906859769
-0.47266386249229114,0.03571379092557447
-0.05404969064841604,-0.11986971403493303
-0.05212847365018397,-0.12059006388887455
-0.050345055471228,-0.12127770994110208
-0.02281123926808778,-0.13119734542142267
-0.02097089803212778,-0.13185215052742777
-0.018105284467143833,-0.1328858813978444
-0.016858556869361243,-0.13333507742608558
-0.023066038068942155,-0.13110719186206263
-0.015090439192309972,-0.13397017277497625
0.025067805998149402,-0.13036176792346957
0.024697021128540927,-0.1304922411812316
0.08536112863055502,-0.10843992937646015
0.08720785008726173,-0.10777386586199066
0.19056430256234408,-0.07025901219549885
0.18906899841895025,-0.07079442669475458
0.18702422040017305,-0.07154494713427437
0.1872835266895243,-0.07145254197295961
0.1848856023311785,-0.07228899942027209
0.2551941384151673,-0.046686443686969475
0.2548560576434808,-0.046869994746742034
0.30332546839241814,-0.02906954093673098
-0.4765703989912286,0.03386292207120387
-0.05018984364655815,-0.12134074882991802
-0.04830390140544841,-0.12210615184362633
-0.01889851404265972,-0.13260132175656758
-0.025395592003787104,-0.13030051519565972
-0.024774577115071923,-0.13051451204407402
-0.034397170640293774,-0.12717870552374244
-0.03459041241049973,-0.1270980001072794
-0.04438799037714502,-0.12363135071861953
-0.042546697511349485,-0.12429319833612945
-0.03961304277305612,-0.12527936909008552
-0.03840200512652078,-0.1256854674403173
0.027047966615550888,-0.12968301069831906
0.026707169046939823,-0.1297994135772727
0.06571800191138279,-0.11557849499360774
0.0676735835245017,-0.11487436829742606
0.06387608653934751,-0.11624822667198859
0.059779224427134584,-0.1177701011419923
0.06181573545522322,-0.11701120383577808
0.09115341180679054,-0.1063472281379586
0.09307078774226078,-0.10565102058156683
0.08916299111077447,-0.10706852807269827
0.0832998573377286,-0.10919083426365372
0.08125484894292752,-0.10993419627611557
0.0754579181070636,-0.11203974456456685
0.07743864998603764,-0.11131843580341397
0.14190671280281353,-0.08790047548039916
0.14070966313561417,-0.08839587951201279
0.14983122773726903,-0.08505585901171259
0.15168837120825368,-0.08439015093710989
0.1477769693883347,-0.08579774848294772
0.14572166344738097,-0.08653622253965548
0.14395099488307606,-0.08715983434002061
0.18880788690195435,-0.07091131639004207
0.2560599090965476,-0.046525673966888594
0.2552276632880985,-0.04677859688866056
0.2548409468082442,-0.04690170960231653
0.25494098282542554,-0.04686709811047878
0.23768395119783914,-0.053271106056046985
0.23963669883969965,-0.0525591893370552
0.2358199893592492,-0.05395508246836955
0.3546837393364166,0.016779525170332384
0.3523628484021045,0.012873634319303693
0.34942265179445986,0.00896783931593384
0.3515511728031738,0.011647996331637968
0.30352406319116787,-0.028999448412698137
