"Plane Section: Position[X] (m)","Plane Section: Position[Y] (m)"
-3.5,2.591184970021675E-4
-3.2699999999999996,2.612460545468097E-4
-3.04,2.7090071351835196E-4
-2.8099999999999996,2.881881310345976E-4
-2.58,3.1386334928295634E-4
-2.35,3.5131599700788857E-4
-2.12,4.050337442021055E-4
-1.89,4.8307558415344585E-4
-1.66,5.999106260112356E-4
-1.43,7.785759198080955E-4
-1.2,9.76704791401177E-4
-1.176,0.0010909410283370792
-1.1520000000000001,0.0011301113206820196
-1.128,0.0011745394724391874
-1.104,0.0012223418665270069
-1.08,0.0012726929988599162
-1.056,0.001330555101635232
-1.032,0.0013884119465605994
-1.008,0.001453211317735978
-0.984,0.0015216789327425855
-0.96,0.0015960631531559293
-0.9359999999999999,0.001679066666332267
-0.9119999999999999,0.0017648802762094253
-0.888,0.001861102370657585
-0.8639999999999999,0.001964539125486993
-0.8400000000000001,0.0020789609665508467
-0.8160000000000001,0.0022062350700951033
-0.792,0.0023393773238742726
-0.768,0.0024924377167702618
-0.744,0.002660862386211863
-0.72,0.0028496635895743517
-0.696,0.0030547976763679622
-0.6719999999999999,0.003293739258576739
-0.648,0.003560481211184874
-0.6240000000000001,0.0038650365126855204
-0.6000000000000001,0.004207835942262881
-0.576,0.004644633374835111
-0.552,0.0050894812101344635
-0.528,0.005703664792732035
-0.504,0.006630578510807703
-0.48000000000000004,0.008095941242972787
-0.45600000000000007,0.008732369416656945
0.47999999999999987,0.00813201706763246
0.4559999999999998,0.008668269648579136
0.5039999999999996,0.006667970600342929
0.5279999999999996,0.005713205669141756
0.5519999999999994,0.005086080665024455
0.5759999999999993,0.004635386751995003
0.5999999999999994,0.004206873942490129
0.6239999999999994,0.0038686950831760773
0.6479999999999992,0.003557344379450487
0.6719999999999994,0.00329311074808939
0.6959999999999994,0.003053246212249662
0.7199999999999993,0.0028491465532569913
0.7439999999999993,0.002658897556885028
0.7679999999999993,0.002491321139119154
0.7919999999999993,0.002340392994706634
0.8159999999999994,0.0022033431476507093
0.8399999999999994,0.0020783351159423817
0.8639999999999993,0.0019646286260360567
0.8879999999999993,0.0018599537833437186
0.9119999999999995,0.0017644107427747372
0.9359999999999993,0.0016775537869053573
0.9599999999999993,0.0015965132117724797
0.9839999999999992,0.0015209177995500417
1.007999999999999,0.001452247326689896
1.0319999999999994,0.0013879742001296222
1.0559999999999994,0.0013283263313755892
1.0799999999999994,0.0012719733200293377
1.1039999999999992,0.0012209532276379169
1.1279999999999994,0.0011736635324150484
1.1519999999999995,0.001133433249774874
1.1759999999999997,0.0010918212349278803
1.1999999999999997,9.747514904786382E-4
1.4299999999999997,7.782557973858946E-4
1.6599999999999997,6.00039383430704E-4
1.89,4.828643061329179E-4
2.1199999999999997,4.0485767390991583E-4
2.3499999999999996,3.5119177620346223E-4
2.58,3.13751821552594E-4
2.8099999999999996,2.8805955927438154E-4
3.0399999999999996,2.706797312447833E-4
3.2699999999999996,2.610443677024162E-4
3.5,2.590264021313549E-4
0.3049853687212098,0.02951970792885983
0.3050004321112644,0.02951978483042839
0.3049949152478684,0.029517814425412958
0.3049952695285798,0.029517986178068844
0.30459806067690076,0.029368082804034967
0.30498117691665405,0.02950665360884973
0.3038526322552954,0.02908849216193526
0.3002709852676874,0.027773943475449155
0.3015716606639094,0.02824691678354283
0.2996026529743063,0.027530775236565122
0.3049631796933927,0.029494148865075148
0.3049844768796961,0.029502837659577452
0.3050102094187122,0.029515689305340695
0.3031995982521604,0.028838556034087373
0.3017306631114375,0.028304127542041868
0.29856263594159116,0.027154006690320046
0.29747526709706107,0.026758939359569616
0.30487763730689815,0.029450573590036732
0.2913382393306184,0.02452206868739916
0.29059727373833955,0.024251553774558475
0.296629301925847,0.02645021393574035
0.2952425695413796,0.025943837256016188
0.29293626570505144,0.025103387719974245
0.29449330443130883,0.025671135312423606
0.3050195049103125,0.02948660658030024
0.3052999571140043,0.029572598462642447
0.30530402030799886,0.029575113033827632
0.2899009184768845,0.023997766007083664
0.2922276760846529,0.02484608982244209
0.287820535407185,0.02323867559632929
0.3053978075506923,0.02962582259043315
0.28370590776174837,0.021742571041409593
0.2856507866291658,0.022450388730218238
0.30563508132506223,0.02971811372933149
0.33076789514065275,0.03960253647766824
0.33203125,0.039933481384548206
0.337890625,0.04108867014841834
0.33984375,0.0413572796004891
0.3359375,0.04075390480954753
0.28174509025770944,0.021027465636301944
0.2797921396743267,0.020316119976013958
0.30613354994749453,0.02987770585307141
0.3070033042176009,0.03015859867244116
0.30700777400150486,0.0301609527814745
0.333984375,0.04036881693704642
0.330078125,0.03941253002621116
0.328125,0.03881675851381733
0.341796875,0.04150599476708905
0.34375,0.04133822789352615
0.34566476876296826,0.03960253647766824
0.27791673704734643,0.01963280941058587
0.30702456463126715,0.030164218348038452
0.326171875,0.03820117996143291
0.324588377795682,0.03764941147766821
0.3196193917175017,0.03569628647766821
0.3203125,0.036010909284794126
0.34437930528710803,0.03764941147766821
0.2758863316174482,0.018893148614815954
0.27463354026966563,0.018436773207019974
0.2739335906571244,0.01818121411071386
0.27213681511733767,0.017524607004496595
0.3088032036547781,0.030535697203984507
0.31640625,0.034332525662365346
0.318359375,0.03517397704438257
0.31520278553295933,0.03374316147766821
0.32421875,0.03752133015898548
0.322265625,0.03677918498559162
0.34249961331780227,0.03569628647766821
0.34375,0.03708059452707761
0.26802262513389646,0.01602075770066001
0.2700290382562822,0.01675479126792518
0.264172533325478,0.014614267726496348
0.26612498881309665,0.015326986560381431
0.3110204730237636,0.03179003647766821
0.3125,0.0326029035591234
0.310546875,0.0316111773013193
0.314453125,0.03343077339734808
0.341796875,0.03506392337947932
0.3405240791268515,0.03374316147766821
0.33872621895456634,0.03179003647766821
0.33984375,0.0330491668529176
0.2622311260842672,0.013904936933093078
0.337890625,0.03067340689301853
0.33730432931082416,0.029836911477668218
0.26026802081264444,0.013187735292308628
0.25831566517106985,0.0124747421336819
0.2564440299650637,0.011790110918709063
0.33640869021460895,0.02788378647766821
0.2555399289093032,0.011459864473241672
0.3361514809274437,0.02593066147766821
0.2544116618971712,0.011046810577069455
0.2524595050733304,0.010333271171227934
0.25066684573714393,0.009676051067646295
0.2485556559948456,0.008904915966212902
0.33663753577068534,0.023977536477668225
0.24655170529643217,0.00817207748934169
0.24076203368052967,0.006051614199812848
0.2426996205173026,0.006763102612595627
0.338156891885993,0.022024411477668225
0.337890625,0.022357807106374826
0.484375,0.0070371996168066275
0.4921875,0.007444523534053179
0.24465136136437243,0.00747778490518148
0.23879608274006633,0.005333892114460236
0.33984375,0.020989839106760888
0.4765625,0.006537090394828976
0.2368434735113682,0.0046215956807043705
0.2349757729021849,0.003935227424846343
0.3415467144411826,0.020071286477668225
0.46875,0.005990095438977775
0.23445412178918923,0.003744154515102708
0.22920242429482207,0.0018123608108059543
0.23098993562533293,0.002472920251062073
0.341796875,0.01998852688965853
0.34375,0.0193143611364106
0.345703125,0.018566624545012032
0.3467823528198556,0.018118161477668225
0.46484375,0.006088356564303444
0.4609375,0.00639213032542941
0.22708877758694146,0.0010371714744205952
0.22508836962968265,3.025712714013777E-4
0.23294172287100254,0.0031874750645472577
0.3511888748167123,0.016165036477668253
0.349609375,0.01701898870953664
0.34765625,0.01782110875845929
0.353515625,0.015310708475468195
0.35546875,0.014752168254261004
0.3515625,0.01600410535539792
0.45703125,0.006293858594935649
0.453125,0.006732698028606653
0.22123441011579403,-0.0011092246889399672
0.2231868138439143,-3.96363647006967E-4
0.2192996776096699,-0.001820195999499842
0.357421875,0.01446153966110129
0.359375,0.014337913008496097
0.361328125,0.014245416170807875
0.3617878000977763,0.01421191147766826
0.4453125,0.00711001497550248
0.44140625,0.0071912269582194936
0.4375,0.007429837463330254
0.44921875,0.006849642416528333
0.21733337659470556,-0.0025453155740476773
0.21624605475120803,-0.0029446956116547358
0.36328125,0.014111925304283908
0.373046875,0.012598519605317958
0.375,0.012293748258081768
0.37109375,0.013177176299881254
0.369140625,0.01353231380347606
0.3671875,0.013773488264846073
0.3754319290442072,0.012258786477668288
0.41796875,0.008604909046957371
0.4203297381220583,0.008352536477668294
0.4140625,0.00892748607399785
0.4296875,0.007718947870726727
0.42578125,0.00782275483991894
0.421875,0.008186435923241107
0.43359375,0.007666757629792373
0.2153829967060664,-0.003263737069056542
0.365234375,0.013966522674321129
0.37890625,0.011846379486444368
0.38085937500000006,0.011699567988044297
0.376953125,0.012124325572825936
0.3828125,0.011694504974387149
0.396484375,0.010342943201923473
0.3968105811014371,0.010305661477668298
0.39453125,0.010496031849027108
0.392578125,0.010744859287158515
0.390625,0.011127870041293147
0.40625,0.009350612907642341
0.40234375,0.009588755094771861
0.3984375,0.010114155302392602
0.41015625,0.009192764756078343
0.21352354712980645,-0.00396365895709486
0.388671875,0.011424366194921234
0.38671875,0.011562840171774324
0.384765625,0.011681808848693118
0.2056393642199564,-0.0068785578212085235
0.2042871103725915,-0.00738987895082934
0.21148990145675184,-0.0047216381758313246
0.20953593036604418,-0.005430192924601757
0.20775097330555392,-0.006086851866433428
0.20365009017618876,-0.007635764747506052
0.19980250927143703,-0.009073069243324534
0.19787322374531804,-0.009790625698060395
0.20174786384043,-0.008340840796556564
0.1866169688862649,-0.013960009815294203
0.18632649342219693,-0.01406004802494248
0.1958979545680928,-0.010499485760041023
0.19394757742577318,-0.011217914800500571
0.19210045502944023,-0.011942545266203211
0.19142746389079546,-0.012209132821558805
0.1842027520690011,-0.014829458167561649
0.18812152866075788,-0.01344211596672135
0.18392014934176895,-0.014941571856678056
0.19007732538426853,-0.012738577102673827
0.18222869181721896,-0.015620469360589912
0.18034426221497699,-0.01638243681308378
0.17839492024602618,-0.01710370996889744
0.17646001241015147,-0.017797417383789434
0.17449294733656562,-0.018537219905757116
0.17327263083309424,-0.019025039654888526
0.1649533696634965,-0.022174219185622047
0.16672661063064248,-0.021507569964503946
0.1725613556985715,-0.019307261693315873
0.17070808946810745,-0.02000580634451123
0.1686698701647369,-0.02076958545686538
0.14331401547759376,-0.02955679735624645
0.14508362777400188,-0.028891471477253045
0.16283044800358099,-0.022957043520484024
0.16084383039882555,-0.023705546298172543
0.1411826672989472,-0.030327763054681982
0.13918335640795887,-0.031033371583702243
0.14704706695316017,-0.02820893008677474
0.14847905122247193,-0.027702351313640447
0.1589616315564063,-0.024481650085521042
0.15786522083066168,-0.024945010271290938
0.1353207110334557,-0.032453309177687864
0.13727096373283745,-0.03173453823307875
0.13339189529639783,-0.03314688371657623
0.1482683676134962,-0.027917759204325005
0.1451863099687733,-0.02917358847866542
0.1434229977033894,-0.029856223550019788
0.15703640483488324,-0.025269179336734542
0.15511103127792497,-0.02598065795117661
0.1314106607731217,-0.03386462677620835
0.12945801986622146,-0.034576836174822455
0.14271209494549547,-0.03014816506119852
0.14711826516405357,-0.02840454555650527
0.15313724405123197,-0.026710415525479335
0.12760185536212412,-0.03524886279127503
0.14133008956276066,-0.03073280238113054
0.13936869112100564,-0.031542574504605625
0.15119101500393906,-0.027440241362950393
0.14934276200480961,-0.028143306689127505
0.1435747455471204,-0.030273147309192373
0.14535144266025246,-0.029627286803471983
0.11770568520884814,-0.038863430757347106
0.11969647036315414,-0.03814243032922297
0.12554698890482266,-0.03598545931940867
0.12349304154890808,-0.03673069381058843
0.12173594116032832,-0.03739131295133345
0.13746962925081438,-0.03228036723819941
0.13558042122862862,-0.033056014003018275
0.1414367131788637,-0.03102574834826426
0.13943216459307564,-0.0317169664296077
0.1473025685725584,-0.02891091499156858
0.11384764848439745,-0.040304062881909054
0.11191919387230824,-0.040990159465245646
0.10795204322562031,-0.04233715915898582
0.1095364877808218,-0.041783801700311235
0.1157934375016878,-0.03957302807198534
0.13751201920348813,-0.032396832671811766
0.10671198830197351,-0.042811835437312415
0.10991628842640912,-0.041656832294657636
0.10611367923602733,-0.04304873954171272
0.09712418269143225,-0.046393994843592995
0.09821719827784281,-0.04597612347341446
0.10407796687733414,-0.043847314265007924
0.10202909047289663,-0.0445986894455361
0.10025892366435794,-0.04522413211595113
0.09624181575679293,-0.04673139699655216
0.09235996487817143,-0.04811464556315166
0.0934465382699109,-0.04773254794524193
0.09185602302307044,-0.0483114481522384
0.09432227448879126,-0.04742900070873129
0.09045646474639675,-0.048860809853216634
0.08849354420324898,-0.04964583445811811
0.0865329266482695,-0.05033612819703637
0.08466300233244774,-0.050951592007293336
0.08057840417531249,-0.05250312187971816
0.08260347845813093,-0.051694150423343035
0.07976389887945338,-0.05285134673773631
0.0768232710248684,-0.05404429960892218
0.07885433545686454,-0.05325595001310708
0.07482080875682837,-0.05475528544523274
0.06907029913271599,-0.05694179205724028
0.0709506081131332,-0.056140429464188873
0.07289874191134942,-0.05541583688668185
0.06895922458820036,-0.0569920145629481
0.06713784270255242,-0.057819034981090284
0.06521783232297748,-0.05862089601350519
0.06337588017512545,-0.059303752957287556
0.06129996769761482,-0.060010743821330884
0.059245789837002405,-0.060731946314122806
0.03758183247807513,-0.06805040512836699
0.039078915849721535,-0.0675207442140147
0.05748721671533961,-0.061390715335109564
0.05543435582067214,-0.062126246234780094
0.05344292269497131,-0.06282129055664681
0.03391592907539988,-0.06939991771977788
0.03581771557884353,-0.06869469281350814
0.04216250102109924,-0.06653713632497815
0.04172873035686442,-0.06666668958378286
0.03963271256440666,-0.06732795780467982
0.04955400903297518,-0.06420126481510388
0.05152075926594567,-0.06352782046988342
0.04761214566321367,-0.06482496386351379
0.04438556064335557,-0.0659360967857322
0.04363209264409816,-0.06616207185893948
0.033770979147539834,-0.06945411619922813
0.045610473893828545,-0.06552058346848785
0.03179524607407473,-0.070184210205574
0.008553593356000368,-0.0784084074039777
0.008435044320240916,-0.07845114669119994
0.01028703793258118,-0.07778744987116272
0.011767700763628902,-0.0772659705116873
0.012239490235933298,-0.07710591175157379
0.013382560343864019,-0.07671931349520639
0.0066656215696659195,-0.07908933378708012
0.027922129525012628,-0.07161567252653386
0.026027017649524073,-0.07235924986709284
0.02986926698501297,-0.07088834253237461
0.014307974925572238,-0.07642983459529652
0.003622086584939813,-0.08018215898604092
0.004395312148309687,-0.07990362963378489
0.00511645374880343,-0.07964436311850044
0.002386247662279666,-0.08062928803453334
0.0012453848455180733,-0.08104808923036225
0.024751003553684214,-0.07287440313711588
0.014765848742545717,-0.07627749339799378
-0.0023861882657213256,-0.08062855071884395
-0.0012453180371391876,-0.08104629841492539
4.279198202860359E-4,-0.0813476423488469
-0.0036218859532020117,-0.08018225857701568
0.02405960170078407,-0.07315755600619706
0.01834777336907476,-0.07506626300147101
0.01814320001121717,-0.07513304977569837
0.020238055832213556,-0.07445941200577166
0.021068948718528477,-0.07421456150012147
0.016089123094671583,-0.07583714549716675
0.022116312487923284,-0.07389545280262937
-2.811943214217859E-4,-0.08140104606307988
-7.076599517257673E-21,-0.08150499136076822
-0.0050187043717909285,-0.07967673342078194
-0.008120680643703443,-0.07856597474647752
-0.006664446799956433,-0.07908626599848202
-0.00511546075841282,-0.07964183480784164
-0.012234591224180087,-0.07709241941555951
-0.010289249145739521,-0.07779370192441595
-0.008436569281802872,-0.0784557346745893
-0.012630464183793388,-0.07695195030835697
-0.014265704848562091,-0.07639787518194902
-0.014292999948975961,-0.0763886613068023
-0.016133415872486033,-0.07577973966688326
-0.016075662575779182,-0.07580015589941322
-0.020646450512756903,-0.07422961294238026
-0.020204260490297436,-0.07436655935380504
-0.018121151704192522,-0.07507246988698886
-0.02209093916428328,-0.07382574011506253
-0.02794056921199993,-0.07166633514833916
-0.026923838759747395,-0.07208355579814596
-0.022464920293478286,-0.0737064693980363
-0.03581420700014277,-0.06868505307309855
-0.03395296566751309,-0.06938643750267003
-0.038070618544754506,-0.06788773442031354
-0.03758534203046354,-0.06806004754396125
-0.03377135303595804,-0.06945514344917775
-0.031801905985782364,-0.07020250816195109
-0.029877862979957974,-0.07091195983353805
-0.026056849475920102,-0.07244121213356211
-0.024066495402707923,-0.07317649629774876
-0.042160404277876054,-0.0665378994771003
-0.041726999364382344,-0.06666193372119542
-0.03963481278194632,-0.06733372810473935
-0.04364108097992286,-0.066186767107772
-0.043917121800068785,-0.06610659458126267
-0.049587047097855975,-0.06429203614909597
-0.04764316838469543,-0.06491019808722284
-0.07091143739653193,-0.05603280880867674
-0.07009851328023994,-0.056369259398555194
-0.04562243601386347,-0.0655534491219957
-0.05543947034853117,-0.06214029828408076
-0.05347378434739549,-0.06290608224677305
-0.051554967425261715,-0.06362180661179992
-0.06530052190670053,-0.05832367343504395
-0.06706345828085435,-0.05761466546943375
-0.08648724747395053,-0.050210625701549653
-0.08470777634914878,-0.05091319716873827
-0.07677806425703285,-0.053920095039535036
-0.07477399579530215,-0.05462666789510723
-0.07285612372080577,-0.05529874437469802
-0.06902447270283935,-0.056815884980448414
-0.08845142004607094,-0.04953009929160218
-0.05746476924207965,-0.06132904141141245
-0.06513440056753986,-0.058391669157583106
-0.06329058504506922,-0.059069406521860185
-0.08465703934687552,-0.05093520883966782
-0.08262563500112909,-0.05175502502274381
-0.08058925722475473,-0.0525329403869252
-0.0788271871598113,-0.053181360682647526
-0.08911451597934371,-0.049309275113186044
-0.06123935121941208,-0.059844201422185536
-0.059209595764808415,-0.06063250392161255
-0.09821481569635156,-0.045969577384801556
-0.0962331977344521,-0.046707719175618216
-0.09565895091869206,-0.04692729559517152
-0.09432947056431612,-0.0474487717630365
-0.0923889963226862,-0.04819440879855394
-0.09046230461709043,-0.04887685476550553
-0.10408093967309029,-0.04385548195392812
-0.10447427676409332,-0.0437187793820879
-0.10203074165377923,-0.04460322602756401
-0.10026588249993973,-0.045243251358893094
-0.10801762637340906,-0.042517347370179884
-0.10615627293026317,-0.04316576475064635
-0.10986002701407098,-0.04189725193007389
-0.11395386215559347,-0.040595882534707924
-0.11200560704070196,-0.041227577685649344
-0.10998875499793703,-0.041855932556466455
-0.1353485406274743,-0.0325297703561086
-0.1334280864781069,-0.03324631816754475
-0.11407582913681492,-0.04057091343609324
-0.1314627149818421,-0.03400764453413396
-0.1295938197755893,-0.03471473875570338
-0.12951866664695,-0.034743461829470065
-0.1276691951229409,-0.03543387725692563
-0.14509120530130648,-0.02891229056167229
-0.14331969120264448,-0.029572391282103976
-0.14251129799768542,-0.029874435852908866
-0.1411991656886754,-0.030373092006294337
-0.13921251571920512,-0.031113486130049342
-0.13730238324200647,-0.03182086262195982
-0.15095234085426443,-0.026784489549593213
-0.15290289394521267,-0.02606654392400042
-0.14909753612235202,-0.027469554138535416
-0.15680806035893996,-0.02464180806768848
-0.1548785083738658,-0.025341806545644267
-0.12563604074400475,-0.036230127227961165
