"Plane Section: Position[X] (m)","Plane Section: Position[Y] (m)"
-3.5,1.7486224992297828E-4
-3.27,1.7642221758530635E-4
-3.04,1.8302645734347153E-4
-2.8099999999999996,1.945850663671005E-4
-2.58,2.1187589468487793E-4
-2.35,2.371813686126934E-4
-2.1199999999999997,2.7331944988561244E-4
-1.89,3.2588947531328623E-4
-1.66,4.0434147681736165E-4
-1.43,5.244709132737844E-4
-1.2,6.575596525455428E-4
-1.1760000000000002,7.326637209986812E-4
-1.1520000000000001,7.58977935546276E-4
-1.128,7.901015978170091E-4
-1.104,8.214983528007479E-4
-1.08,8.549446005522264E-4
-1.056,8.939644268172038E-4
-1.032,9.325980137171857E-4
-1.008,9.757576364563818E-4
-0.984,0.0010211998348714042
-0.96,0.0010712366934124322
-0.9359999999999999,0.0011263121865568663
-0.9119999999999999,0.0011832984330801522
-0.8879999999999999,0.0012472877854548623
-0.864,0.0013156686074626595
-0.8400000000000001,0.0013924842293960532
-0.8160000000000001,0.001476534687157644
-0.792,0.001564597291013352
-0.768,0.0016652133565130936
-0.744,0.001776072033857066
-0.7200000000000001,0.0019004810415876735
-0.6960000000000001,0.0020337962533013383
-0.6719999999999999,0.0021882702791282075
-0.6480000000000001,0.002359900466539693
-0.6240000000000001,0.002556146348825573
-0.6000000000000001,0.002771698831928915
-0.5759999999999998,0.003044967508882381
-0.552,0.0033296830035573185
-0.5279999999999999,0.0037222961103822016
-0.504,0.00429826300051805
-0.48000000000000004,0.005407093092887909
-0.456,0.004559101764872253
0.47999999999999965,0.005442621564259511
0.45599999999999946,0.004579907780433606
0.5039999999999993,0.004319547093607785
0.5279999999999994,0.003727058254790436
0.5519999999999992,0.0033256333520719364
0.5759999999999992,0.0030413495982265534
0.5999999999999992,0.002773877567468331
0.6239999999999992,0.0025579081238832433
0.6479999999999992,0.0023575510343418348
0.6719999999999993,0.0021893927549620083
0.6959999999999993,0.0020322062380685874
0.7199999999999992,0.0018998107829924667
0.7439999999999992,0.0017769438787745874
0.7679999999999992,0.0016659309880468235
0.7919999999999991,0.0015657971711911744
0.8159999999999993,0.001475273500537478
0.8399999999999994,0.001392579409727309
0.8639999999999992,0.0013168845476377489
0.8879999999999992,0.0012471996388742068
0.9119999999999995,0.0011832156290837218
0.9359999999999993,0.0011258655986238612
0.9599999999999993,0.0010720499819060264
0.9839999999999991,0.001021285938595174
1.007999999999999,9.753203270892275E-4
1.0319999999999991,9.327458332454585E-4
1.0559999999999992,8.925714588275182E-4
1.0799999999999992,8.548647081269694E-4
1.1039999999999992,8.209574428056558E-4
1.1279999999999997,7.892209432907937E-4
1.1519999999999995,7.619159587882943E-4
1.1759999999999997,7.339013458490645E-4
1.1999999999999997,6.56054802510632E-4
1.4299999999999997,5.243925235959505E-4
1.6599999999999997,4.0456669179584893E-4
1.89,3.2582797911616043E-4
2.1199999999999997,2.7325017076072083E-4
2.3499999999999996,2.3710646666608338E-4
2.58,2.1186936358663758E-4
2.81,1.9455646578082138E-4
3.0399999999999996,1.8296947488878558E-4
3.2699999999999996,1.7648914658185546E-4
3.5,1.7499481796078226E-4
0.3013498332999062,0.03808750967380063
0.3002967787117853,0.03770873141888296
0.2996228363345189,0.03746817493283564
0.3046018998080595,0.039288329260120075
0.3032813382960153,0.03878409547966781
0.3017747250123878,0.03823776112934378
0.2985792113131903,0.03709089734828887
0.29670907802548246,0.036414494880888444
0.29664135517202644,0.03638974246105687
0.29748892441826563,0.03669734332730409
0.2952542471332352,0.03588191586030093
0.2929477442551279,0.03504028443641996
0.2945045973730308,0.0356094590980601
0.3049769243806027,0.0393993453459563
0.30476407005700273,0.039349860260419575
0.29060875517197254,0.034188011940623236
0.29223891904271554,0.03478344957731458
0.30531772298557874,0.03948097171816524
0.3058131614011714,0.039631000038625575
0.30587117706898204,0.039651605317477454
0.2856601994821295,0.03239243796272218
0.28371418013735505,0.031687752867144814
0.2899117981110117,0.0339358437015255
0.2864475703334077,0.0326775178783045
0.2878312299468161,0.0331772123206585
0.3063712887555123,0.0397928671649968
0.28175264763538316,0.030974611754595108
0.27979934839219145,0.030264224001016
0.30731281538648975,0.04003249475785655
0.277923602151675,0.02958185750306219
0.27214240128328493,0.02747716895117035
0.2739398148059978,0.028132023213766816
0.30921168970572976,0.04032975815295143
0.26802636912096234,0.025978380992031813
0.2700337783032381,0.026709677907338795
0.266127982241896,0.025286671993568776
0.26417517543771546,0.0245749183939699
0.275892929451016,0.02884293102764587
0.31019820946674936,0.040398159456393926
0.262233277310037,0.023866936300003583
0.310546875,0.040275264308132296
0.3125,0.040134842843521645
0.31640625,0.04013910601199191
0.3182773722124322,0.03980482128859388
0.314453125,0.04019936815179636
0.26026974460284824,0.02315090902874293
0.2583171236769954,0.022438644732654566
0.25825807303335474,0.02241709783776764
0.3165985381613757,0.03785169628859387
0.25644516898623115,0.02175489129480893
0.31640625,0.037751127118114826
0.314453125,0.036714400856983125
0.3129904665565225,0.03589857128859387
0.2524602156209125,0.02029922876878645
0.25441249159075563,0.021012440823688378
0.25066706281818585,0.01964336445333243
0.24855568901429526,0.018872735056949502
0.3125,0.0356242323507348
0.310546875,0.03449991743193619
0.3096329987208879,0.03394544628859387
0.24655169291864998,0.01814002130794316
0.24269953000532124,0.016731261103137274
0.2407610957893286,0.016022100845543
0.30859375,0.03331629889016815
0.306640625,0.032082999390011295
0.3064999121077903,0.03199232128859387
0.244651558472121,0.01744515316703802
0.23879564901492817,0.015302993575366523
0.3046875,0.03072774602904185
0.23684378183471888,0.014588658380216555
0.23497542510373626,0.013904092804121967
0.30375680222401424,0.030039196288593868
0.484375,0.004012285270688785
0.4921875,0.003670082395788845
0.2340609656426612,0.013568967191273361
0.22920132296978563,0.011783296487292396
0.2309897436529923,0.012441357501639935
0.302734375,0.029197258059708513
0.3014460249983259,0.02808607128859387
0.4765625,0.0036708346709744383
0.22708724423666504,0.011009294130455895
0.22508667811122757,0.010275128490920552
0.23294095773404314,0.013157487071916432
0.30078125,0.027362622447915715
0.29968872712818917,0.026132946288593896
0.46875,0.0034599595785959635
0.22123465850820687,0.008858002669464618
0.22318525215326873,0.00957583687355006
0.2192998421619961,0.008147261707641436
0.298828125,0.02454224302555999
0.29863768286125647,0.024179821288593896
0.4609375,0.0035693851369117506
0.21733302014805725,0.007423573565960415
0.21630341820161697,0.007044092787754565
0.2982872350812128,0.022226696288593924
0.45312499999999994,0.0037386229363185817
0.21538338700328194,0.006703100409120861
0.2984842231598448,0.020273571288593938
0.4453125,0.003965591172782067
0.21351966426639113,0.006014918933005129
0.2993364800187286,0.018320446288593938
0.298828125,0.019489163385318274
0.4375,0.004207772422226587
0.20563589654184566,0.0030988793566831437
0.20364120488853718,0.002356557189733518
0.21148341867565698,0.005264082929129781
0.20953551352202177,0.004538862155821873
0.20775369775800429,0.003873572573172614
0.30078125,0.016699450722954774
0.30108461897742506,0.016367321288593938
0.4296875,0.004729838972381569
0.42578125,0.004638732066582551
0.421875,0.004789416882143798
0.4325000001117587,0.0045061914554747826
0.20243264350299858,0.0019030601191316623
0.302734375,0.015235929363641945
0.30403632760637345,0.014414196288593955
0.3092272286400479,0.012461071288593951
0.30859375,0.01271055382444321
0.306640625,0.013430656232063149
0.3046875,0.014154045504844948
0.41796875,0.004984151816908248
0.4140625,0.005162941611482986
0.19979461991169392,9.165164045730709E-4
0.1978664626514808,1.9586006484866687E-4
0.20174275837805167,0.001641096156467108
0.310546875,0.012197173679424467
0.3125,0.011859928335687709
0.31640625,0.011462171082542032
0.318359375,0.01136537904133526
0.314453125,0.011616032753443122
0.3203125,0.011287646626311069
0.3295733020998377,0.010507946288593969
0.328125,0.010707518659457418
0.40625,0.0053484351062165515
0.40234375,0.00539437690931668
0.3984375,0.005582111148572778
0.41015625,0.005325590031240112
0.19590325945570533,-5.461510075216057E-4
0.19395459868471032,-0.0012692957392701617
0.19209168909306204,-0.001950551243880491
0.326171875,0.01092048990450867
0.32421875,0.011083635724559907
0.322265625,0.011205273388074331
0.330078125,0.010444097537960257
0.33203125,0.010256588715471878
0.337890625,0.009831539895673197
0.33984375,0.00956470218310504
0.3359375,0.010044002635628215
0.3515625,0.008604472676243235
0.3531611460859253,0.008554821288593948
0.3775157237003831,0.006601696288593936
0.375,0.006754711105645927
0.39453125,0.005794948347581498
0.390625,0.006040633179746818
0.19005539509401612,-0.002710414316635148
0.18833787599404817,-0.0033657410411982868
0.1881134789750434,-0.00345208982685348
0.1863418713471427,-0.004134388714050452
0.333984375,0.01014927246268632
0.341796875,0.009378146595928588
0.34375,0.009096669863924142
0.349609375,0.008646047504810926
0.34765625,0.00869408166083672
0.345703125,0.008797236749388855
0.353515625,0.008543555609169626
0.35546875,0.008319237722207036
0.37109375,0.007127000477166809
0.3671875,0.007465142035739466
0.3828125,0.00644250547680239
0.37890625,0.006517785983200719
0.38671875,0.006306748696834645
0.18422223879735733,-0.004915087700856538
0.357421875,0.007940210936528056
0.359375,0.007845027896526384
0.3643749998882413,0.007639476896075199
0.36328125,0.007734171570191668
0.361328125,0.007822871614429353
0.18222409124452088,-0.005639919580512312
0.18031744185923065,-0.0063408386830020496
0.17837830872977797,-0.0070901603938111745
0.1764610809061974,-0.00783244324151769
0.17449161022928916,-0.008565636422913471
0.17253988959343108,-0.009280374245345092
0.17068274222582458,-0.009968255560261713
0.16493989960668037,-0.012169300699080529
0.16670947111747175,-0.01149256972984759
0.16897257603885343,-0.010622221794780205
0.16864941135848913,-0.010745465539757824
0.14331677455486003,-0.019596468047536883
0.1450939362636379,-0.01895188400781687
0.16282068772170236,-0.012962317556449665
0.1608345762772234,-0.013712210998018476
0.14118405419480173,-0.020363663708663306
0.13918957739748378,-0.021082553800410984
0.1478407388351498,-0.01796676821186346
0.14705119294876284,-0.0182523563551942
0.14511371934674216,-0.019006237579986686
0.1441217426395457,-0.019459097456582208
0.15892863952441955,-0.014423095414935727
0.15697771106213645,-0.015140009716298943
0.15505628978239894,-0.01586234712277171
0.1353211425258513,-0.022486584882333415
0.13727519876619318,-0.021778264080251953
0.13339450966235,-0.02318615681681315
0.14705341354627613,-0.018258457396501213
0.14337943957482097,-0.019768638768704088
0.1531019294705364,-0.01664547970498946
0.13141441270512072,-0.023907025313360253
0.12946077935791533,-0.02461650800474343
0.1412718698827689,-0.020604935319787514
0.13928760122381434,-0.02135187204017881
0.15201482345635722,-0.017106470963241256
0.1276065663346494,-0.025293896270522802
0.13739689798227175,-0.02211262991642009
0.13732792833338284,-0.022139931633411783
0.1511777769261887,-0.017435960233631
0.1493289807614842,-0.01813753322470905
0.1435692705524285,-0.020290195074517667
0.14533824715151947,-0.01962312263156237
0.11771115330004163,-0.028910544402965165
0.1197012639309735,-0.02818769073716795
0.1255559159257451,-0.026042076296012268
0.12350330886758969,-0.02679099322488873
0.12174254131561976,-0.027441536917386555
0.13548340032785042,-0.022932384513492887
0.13357279761585295,-0.02367599892568279
0.14144157279476074,-0.021071190221804877
0.13945043316459296,-0.021799249104614303
0.1472855898619187,-0.01889635655821923
0.11384510278080406,-0.030329158808094427
0.11192159183192496,-0.031028837993983767
0.1157955823842226,-0.029611011277180417
0.13556940255668642,-0.023168673686781466
0.137532404114841,-0.022484929942520222
0.13161965232618322,-0.024470916517614807
0.13363826239661392,-0.023855861926152508
0.1306393433753794,-0.02488650945586729
0.10993158125198732,-0.031730939175183145
0.10797365433416917,-0.032428625378681325
0.13164805740487068,-0.02454895882711188
0.10613690677010695,-0.03314464685389529
0.10539152456047306,-0.03341701867583375
0.09625515521907056,-0.03680013705570958
0.09823427866138697,-0.03605514162891153
0.10409208587817058,-0.03391819608867657
0.10203990906609454,-0.034660503474067635
0.10027213845309696,-0.035292529637388714
0.09433687236462511,-0.03750119823059497
0.09238196461843576,-0.03820717953967174
0.09046937274762813,-0.03892836448293461
0.08849337560788842,-0.03967746143526289
0.086535036903294,-0.040374016263932166
0.08468377646632914,-0.04104075865807177
0.08276134615544564,-0.04179245533956715
0.08062840261894745,-0.042672581658768416
0.08264483034513584,-0.041839853984146885
0.0768277986118219,-0.04408882924047049
0.07887703817418995,-0.04335041540315964
0.07483492831212574,-0.04482616879227021
0.07310335364567715,-0.04551576512814321
0.06911245239135735,-0.04708969736844103
0.07101286344569924,-0.0463435647676042
0.07294660518705809,-0.04557943034027798
0.06714137659736949,-0.04786083446602954
0.06519502292831081,-0.04859031790802545
0.06334634179210676,-0.04925468710891687
0.061278336126062566,-0.04998340175814625
0.05922995887960777,-0.05072054130678452
0.03757610623917177,-0.05806676260591929
0.03962865012312685,-0.05734888652846967
0.05746812793526711,-0.051370359533847776
0.05541387051525816,-0.05210205351181428
0.05342423538098841,-0.052802037774361404
0.03376198322301727,-0.059461490289694593
0.03580984960739173,-0.05870517142441044
0.039986448602234756,-0.05722251949455254
0.04207211393817846,-0.05660212472179781
0.041731818616816435,-0.05670726469703693
0.04953784936601499,-0.054188956685689016
0.05150030074253045,-0.05350370132985183
0.04760422667071265,-0.0548352968002858
0.04485489980398616,-0.05579736149056151
0.043626780638475214,-0.056179567433035364
0.03178891024400289,-0.06019889284521579
0.04560356923581751,-0.0555337032662671
0.031101747645107643,-0.06045628618330324
0.010290625864729622,-0.0678295492468968
0.010735006789616424,-0.06767393056839856
0.0066667244657848046,-0.06912479982276813
0.007574960320084544,-0.06879669088873101
0.027926621176724974,-0.06166010342682199
0.026040327067197267,-0.06242790737938092
0.029867770732587097,-0.06091632180184223
0.008436409227111002,-0.06848714623851145
0.012049081138836047,-0.06723675042001585
0.01225228621302464,-0.0671733034529782
0.013610319004099768,-0.06673016201445228
0.0038467203320445478,-0.07013539091465518
0.003622479331181371,-0.07021597159921036
0.005117518790585047,-0.06968019734231255
0.0023864349712464372,-0.07066262227213031
0.0012454626494287921,-0.07108115000137483
0.025728499611708408,-0.06255071385695932
0.014321636193541456,-0.06649949046287358
-0.0023864350892645416,-0.07066228124540286
-0.0012454274981448675,-0.07107976246069117
9.004986249846639E-4,-0.0712077279196703
-0.0036221856198725717,-0.0702156634717847
0.024066605671793657,-0.06320888944953258
0.018642195123302115,-0.06499119243559703
0.018140397189318515,-0.0651574388389313
0.02022882154859272,-0.06446613099232125
0.02174884605496839,-0.06399918929605075
0.01609108045656986,-0.06587461498934205
0.022103511017718982,-0.06389237121240662
-5.657371498294064E-4,-0.07132957113227717
-7.445703248734913E-21,-0.07153779784906084
-0.004073413935618478,-0.07005288119138639
-0.00744557017396821,-0.06884378505144334
-0.0066659944126809196,-0.0691230928254021
-0.0051164836792171025,-0.06967751315759563
-0.011323240126928289,-0.0674598311439167
-0.010290093277820975,-0.06782814475582484
-0.00843885155701403,-0.06849437122806515
-0.01224081403614078,-0.0671416754389429
-0.013101724402934781,-0.0668536196061496
-0.014309509193466768,-0.06646614881595383
-0.015281770384847751,-0.06612180346253893
-0.021066276627626692,-0.06410889892190069
-0.020198683424711622,-0.06438332656191871
-0.01812082691072286,-0.06510366767385356
-0.01607836776359542,-0.06583968054186676
-0.022073651733043587,-0.06381033344051791
-0.03376517320702625,-0.059470254698413855
-0.032752720180742316,-0.059855381322741236
-0.02794495829401299,-0.06171048424070466
-0.027316612189140554,-0.06197268815011049
-0.02317070213830997,-0.0634816760032033
-0.03580609664017494,-0.05869486023209555
-0.03962930549453353,-0.05735068714654641
-0.03757586192522558,-0.058066091358892874
-0.031796002027853966,-0.060218377360512554
-0.02987562160292629,-0.060937891890049826
-0.0260650081389375,-0.062495718064246975
-0.0240694338251382,-0.06321665973721022
-0.039739106840763705,-0.05731254453341897
-0.04157895211235461,-0.05678162094707406
-0.04338671536609617,-0.05633173692436632
-0.041756888386632975,-0.05677614332105235
-0.043649870901808135,-0.05624300740788013
-0.04955522278848665,-0.05423668976991929
-0.047619412859841066,-0.05487702051050966
-0.0456106121909486,-0.055553053625763085
-0.05541144366540859,-0.05209538579689092
-0.05344003954914781,-0.052845459367957766
-0.05151829527786067,-0.05355314090757484
-0.08650424631895112,-0.040289419831747504
-0.08646002690890094,-0.04030752031108652
-0.07095930934049897,-0.04619642607811618
-0.06906552695546664,-0.04696077079754982
-0.0884578022666476,-0.039579724486968955
-0.057451762722180166,-0.05132539648203689
-0.068301615651898,-0.04726345483062393
-0.06709370679174359,-0.04772986275617244
-0.06514341406854313,-0.04844852373624733
-0.06329248606460616,-0.049106719718999145
-0.08468485785539905,-0.04104372975001658
-0.07679326479724441,-0.04399394836810869
-0.07480182350259637,-0.044735214078869844
-0.07289704408667168,-0.0454432623409589
-0.0884869554803838,-0.03956977864408304
-0.061239316418086165,-0.04987619599540616
-0.05920791646023638,-0.05065998025946006
-0.08306780359892033,-0.041680913952073045
-0.08264948629636729,-0.04185264610456329
-0.08059916986388801,-0.04259226532721023
-0.07883547955881774,-0.04323623404992937
-0.09795188453346573,-0.036124826199319816
-0.09822246820974556,-0.03602269268087512
-0.0943293048948336,-0.037480406778964845
-0.09237698410749876,-0.03819349569882492
-0.09045921039858129,-0.03890044365939959
-0.10006932257345,-0.035354141779862576
-0.09624789470103463,-0.03678018894706658
-0.10627754693162006,-0.03323325823401189
-0.10618138358028797,-0.03326684588118118
-0.10409089653558071,-0.03391492839688388
-0.10203801299307654,-0.0346552940564515
-0.1002686095392251,-0.03528283402655767
-0.10804923393282335,-0.03263627861191945
-0.10995123953538075,-0.03210423146865349
-0.12950510019838532,-0.02473827850878541
-0.12765624421519445,-0.025430385120679307
-0.13535115233114542,-0.022569036141788783
-0.13342862982651793,-0.02327990119405578
-0.11979175917043906,-0.028436324355264657
-0.1178234421301795,-0.029219055417178653
-0.11750451090868921,-0.029355065517434227
-0.11399071669903307,-0.030729229746060988
-0.11205816210444257,-0.031404061720458426
-0.1100547079023212,-0.032069226854595116
-0.1314539518838151,-0.024015658310116747
-0.1259043239590807,-0.026089695601436532
-0.14466564734932608,-0.019122407003775328
-0.14509780626429747,-0.01896251674686155
-0.14120357591108473,-0.020417299181419223
-0.13921501334805908,-0.021152438497756446
-0.13730478856445585,-0.021859561379913718
-0.15171566939081527,-0.01655640882975261
-0.15291028602066767,-0.01611894367274303
-0.15681466818249287,-0.014692053102116088
-0.15488545456865374,-0.01539298124736628
-0.12357777314598037,-0.026995582140997107
-0.12561364412722426,-0.026200683220362363
-0.1218263985625197,-0.02767193280145167
-0.11593056696806933,-0.029981878359993525
-0.14705077596542776,-0.01825121070293785
-0.1486117291630203,-0.017686150681611446
-0.14333411004807148,-0.019644096921985096
-0.1509598980403508,-0.016837342936050933
-0.1491016452053974,-0.017512933940087357
-0.16100761790400978,-0.013174416152615703
-0.16068138379848929,-0.013291318136937723
-0.1587695401282624,-0.01398597343219779
