"Plane Section: Position[X] (m)","Plane Section: Position[Y] (m)"
3.5,6.243969014885467E-4
3.2700000000000005,6.336108773672926E-4
3.04,6.587442327998764E-4
2.8099999999999996,6.94600393106401E-4
2.58,7.529590701201807E-4
2.35,8.502547468224864E-4
2.1200000000000006,9.79551057669638E-4
1.8900000000000001,0.0011568846163162456
1.6600000000000001,0.001432152109399926
1.4300000000000002,0.001844061765772597
1.2000000000000004,0.00228462316095227
1.1760000000000002,0.0025263630438848474
1.1520000000000001,0.002614361242187678
1.1279999999999997,0.0027105588092545697
1.104,0.0028192013945876337
1.08,0.002936212543525074
1.056,0.003058283953259419
1.032,0.003198079024969885
1.008,0.0033607833378923595
0.984,0.003530155449012285
0.96,0.0037237647378193595
0.9359999999999997,0.0039511298894238265
0.9312130850931413,0.00399999999999999
0.912,0.00419497255913119
0.8879999999999999,0.004453073997538219
0.8640000000000001,0.004729185210075657
0.84,0.005028998410340203
0.8159999999999998,0.00534497211479374
0.7920000000000003,0.005708294781380244
0.7680000000000005,0.006104234326507704
0.7440000000000004,0.006547779698522616
0.7200000000000003,0.007042395587661505
0.6960000000000004,0.007572674565212033
0.6720000000000003,0.008275890293394941
0.648,0.009053505914894153
0.6240000000000001,0.00992692568531148
0.6000000000000001,0.011050173284526066
0.5857580954440622,0.012000000000000106
0.5760000000000001,0.012670493692534448
0.5520000000000002,0.014668591718371876
0.5280000000000002,0.016600902749045986
0.5040000000000002,0.017957611955748014
0.483889935374578,0.019999999999999026
0.48000000000000054,0.020438971585539478
0.45600000000000035,0.022683858958489928
-0.48410226184963634,0.019999999999997617
-0.5040000000000001,0.018002428807263916
-0.48,0.020457887551585497
-0.45599999999999985,0.022644420987488666
-0.528,0.01664348269559218
-0.552,0.014710910769954856
-0.586581135402781,0.011999999999998392
-0.6000000000000002,0.011076599405517785
-0.5760000000000004,0.012749231407794505
-0.6240000000000002,0.009929970748116251
-0.6480000000000001,0.00902281941626337
-0.6720000000000003,0.008274261135368596
-0.6960000000000003,0.0075868375613925825
-0.7200000000000002,0.0070120400149494486
-0.7440000000000002,0.006523663999784756
-0.768,0.006082215918730772
-0.792,0.005685081202063165
-0.8160000000000001,0.005324134653667347
-0.8400000000000001,0.005003169755921647
-0.8640000000000001,0.004709668409248585
-0.8879999999999999,0.0044347922298799474
-0.9297800118519562,0.003999999999999785
-0.9359999999999999,0.003939782156848518
-0.9120000000000001,0.004171429628440194
-0.96,0.003725782879487818
-0.984,0.0035341620967867717
-1.008,0.0033691501526350526
-1.032,0.0032150253326837692
-1.056,0.0030756391866747185
-1.08,0.0029486016165610413
-1.104,0.002834157209493108
-1.1280000000000001,0.002726282893392138
-1.1520000000000001,0.002625813735958463
-1.1760000000000002,0.0025332950223965296
-1.2,0.002294720851512776
-1.4299999999999997,0.0018498086553602158
-1.6600000000000001,0.0014338868891679568
-1.8900000000000001,0.0011606595799645758
-2.12,9.756862547776827E-4
-2.3499999999999996,8.462999165714745E-4
-2.58,7.56900481924419E-4
-2.81,6.98413004281464E-4
-3.04,6.566728238545463E-4
-3.27,6.327235082499102E-4
-3.5,6.278618351270444E-4
-0.35156560541605664,0.03843534164723428
-0.35090845984036034,0.03734444932925209
-0.30164928392356505,-0.009128556047295042
-0.2999823853358516,-0.009735219060234593
-0.34861846287375975,0.03343791213068746
-0.34579219783075443,0.02953130768357579
-0.3476602442557082,0.031347116564076766
-0.35290199251161686,0.04125094935091293
-0.29440204187702135,-0.011767622879076064
-0.2961840747720113,-0.011118780512391187
-0.29229541182093155,-0.012534642707905767
-0.29028926562577145,-0.01326508951418237
-0.2883897667422457,-0.013956713946413409
-0.2864367288281386,-0.014667819354650587
-0.28449557463450115,-0.01537460962265122
-0.282530652329244,-0.01609005366753003
-0.28057761464361175,-0.01680117287976803
-0.30335034537901495,-0.008507685768078505
-0.29808334686285154,-0.010427139233075883
-0.34570735968160327,0.02942973717655003
-0.3446051217563877,0.027578033807722037
-0.3546342214104501,0.045157416604823246
-0.278706098637934,-0.01748261436934987
-0.30342454723771484,-0.008480694870266373
-0.34449278383807735,0.02562489470508326
-0.3430298776762277,0.023671586239868
-0.3437548266771634,0.024708793810679204
-0.3554708102470142,0.04677020290092508
-0.3566472932628507,0.049063919076710344
-0.26104725573029697,-0.0239124142810041
-0.25909422607780885,-0.024623555555529888
-0.25722563527542996,-0.025303944381546508
-0.2766715437868018,-0.018223423702791695
-0.274718507540476,-0.018934546867950326
-0.27292576725766776,-0.019587363338344717
-0.2708124350178646,-0.02035679311599789
-0.268808458125679,-0.021086466292415253
-0.2649533265891328,-0.022490163463550226
-0.26301485528222135,-0.023195979183570182
-0.3035533694428868,-0.0084364487403556
-0.341801994243631,0.02237562364348479
-0.34122462848476676,0.021718234844499237
-0.3394666414155628,0.019764889375847867
-0.339849136776987,0.02024207798559545
-0.3588433351461878,0.05297044449322076
-0.2551881558612953,-0.02604580813706204
-0.2532351254465829,-0.026756947318208518
-0.2514458916080095,-0.02740854947191449
-0.266906366212516,-0.021779049573155275
-0.30362668574413076,-0.008413708811242142
-0.3378962631745839,0.018237205681349213
-0.3374816935634179,0.017811515446092364
-0.33559817592364194,0.015858154235784138
-0.3359433838855198,0.0162776811455983
-0.39062684167520456,0.04851539033801476
-0.39034410288383437,0.04906814468959346
-0.3593762006442018,0.05362528122293525
-0.23574524142955872,-0.033125422052592876
-0.23761088506620007,-0.03244606883433549
-0.24932907005723462,-0.02817924062108281
-0.24732765794364014,-0.028907984127916963
-0.23956391817278883,-0.03173493704617553
-0.3037636733128586,-0.008368978589443594
-0.33358727299953667,0.013904777051239669
-0.33399050850900347,0.014286956336161801
-0.39347782718639435,0.04516228763097215
-0.3932952021848067,0.045385236996908926
-0.3956285048854141,0.045162557328059676
-0.39569348509897273,0.04518064037859689
-0.3957261025505104,0.04516256956690234
-0.3957427337975655,0.0451625716524771
-0.3960959845611324,0.04516261595046825
-0.3889815177998619,0.05297422385080162
-0.36169664172443317,0.05687705233136546
-0.23175180942629384,-0.03457952923330005
-0.23370484166237648,-0.0338683950543802
-0.22996610254462707,-0.03522985777865033
-0.22784577464251327,-0.03600187912748291
-0.22584694000788427,-0.036729716174895254
-0.24542300324333338,-0.029601502547582516
-0.24346997604457976,-0.03031265056104878
-0.24153420791507813,-0.031017525787596686
-0.3038934428647526,-0.0083290289835764
-0.332037606609852,0.012507734124624593
-0.33150331808896255,0.011951390705897694
-0.4004487642317527,0.043210036777938506
-0.40039312077188244,0.04329996123571712
-0.3984398105790265,0.04477664429564977
-0.39648664769872044,0.04507859530574299
-0.39453352711234474,0.04504327677829483
-0.3890489579157982,0.056880482338565894
-0.36328171556667965,0.05948734259638339
-0.36434845215629497,0.060783634901699114
-0.21426493960027831,-0.04094710769459217
-0.21612762218759068,-0.04026879669809586
-0.22393971590641193,-0.03742416323887807
-0.2219866863119127,-0.038135304672651194
-0.22005363208982054,-0.03883924766705679
-0.2180806581012812,-0.03955767261937591
-0.30401293870685353,-0.008296149914307042
-0.33008472659263316,0.010554016183923588
-0.3294890805373319,0.0099980131031849
-0.32758738909233776,0.008044649613863553
-0.328131839578665,0.008656093299343321
-0.40104824878358086,0.04125698693853232
-0.390524788362008,0.06078691743985857
-0.36718739221630803,0.06405972386056524
-0.3677712701248037,0.06469031415712939
-0.20848643961207317,-0.043051391318166474
-0.21026857504812047,-0.04240233537082745
-0.20613528388153213,-0.04390757607142312
-0.20636257997785895,-0.04382479433443584
-0.21222160498116382,-0.041691194866827375
-0.3041231587496379,-0.00827210896314078
-0.3261789587492442,0.006708852246351402
-0.3254955528094034,0.006091262280193056
-0.32305067368559043,0.004137830674607528
-0.32422603349092183,0.005115905888561291
-0.40134026859390143,0.03930389854274533
-0.3906252880350242,0.06090476883787544
-0.3710930994583117,0.06838814871246746
-0.37135808884369526,0.06859701397841186
-0.2043665273516716,-0.044552274716871336
-0.3043321517866976,-0.00821487991682644
-0.3206602626344878,0.0021844058993708126
-0.32227311476405707,0.0034708749243276974
-0.4017912174825004,0.037350830076818324
-0.3938482592056847,0.06469358423705955
-0.3749989088114747,0.07190229639224381
-0.20245686108267935,-0.04524801178686507
-0.2005040403505909,-0.045959726841554326
-0.19857407204726196,-0.04666373752017578
-0.19292567174891267,-0.048722838478676096
-0.19464587474683887,-0.04809568656898401
-0.30491626954465634,-0.008014331412776644
-0.3054921130730642,-0.007806726819451848
-0.30544532542511743,-0.00782337816412361
-0.32032018571585585,0.0019081506715091215
-0.31836723720306803,5.006451798161991E-4
-0.3180167431971134,2.3094938408907772E-4
-0.31534218244265244,-0.0017225110237990967
-0.3164142929506009,-9.408339147700552E-4
-0.4023470887221746,0.03657804446184805
-0.3945309747985832,0.06539649733674142
-0.3983260276780255,0.06860039578431758
-0.3828108434832958,0.07641095022646396
-0.1848822884750614,-0.05165568280162518
-0.18288883406883183,-0.05238228957107985
-0.19074052644673334,-0.04951992182583909
-0.1887879164398077,-0.0502322156173219
-0.1870097125374242,-0.05088086083437857
-0.196598681496853,-0.04738393311385286
-0.19278642546276123,-0.04877365676890357
-0.30563950274273555,-0.0077289750800051795
-0.31446134613074617,-0.0023618396005553686
-0.312508373649015,-0.0035782067008071758
-0.4062534548737315,0.03565204809274126
-0.40430029834990877,0.03590330983753065
-0.4072466350493471,0.035398389176162705
-0.39843681096724226,0.06869680692535332
-0.17709637915470214,-0.05449333295623977
-0.17902379295835535,-0.05379073645424908
-0.17316523673073705,-0.055925623370075686
-0.17511813480782973,-0.055214120736151034
-0.17130851930542224,-0.05660182768599868
-0.18097660826568024,-0.05307900650095948
-0.31236329559494347,-0.003676009594474879
-0.30576752557837733,-0.007673123739420016
-0.30664941846420046,-0.006926356450361774
-0.30619400463916996,-0.0075830332603042385
-0.410159902110139,0.034079447147380364
-0.4082066531038212,0.035068203090104826
-0.4023427583626338,0.07111014792878789
-0.4052524485961376,0.07250751439498014
-0.3906228250769854,0.08054542939269946
-0.17048412666986185,-0.056902301179777945
-0.31055539895508244,-0.004776932795711612
-0.30913666683807894,-0.005629539232227832
-0.3086024231145837,-0.005966515660299787
-0.4108293697469472,0.033445713439244754
-0.4062487637272899,0.0730612176294938
-0.3984350024375211,0.08311878153913918
-0.16925954006514302,-0.05734890187396597
-0.16720569717491007,-0.05809918562516116
-0.16141095842775735,-0.06021179113365986
-0.16340189076013767,-0.05948627956721868
-0.41332410524105734,0.03149290126616058
-0.4121132148022076,0.032582834290918905
-0.41796710958246175,0.07628477259152487
-0.41406095994282915,0.07548421214260363
-0.4101547838421789,0.07489466284917126
-0.4062475360227846,0.08285144833978837
-0.41861689919490563,0.07641544034086256
-0.15168456759574828,-0.06375547470605807
-0.14983074907684446,-0.0644303223014022
-0.15949622213529852,-0.06090963508239827
-0.15754328701691497,-0.061621035985920704
-0.15561853037707635,-0.06232247728793787
-0.16544249505139566,-0.05874260164927643
-0.4140665356288423,0.031021353022627207
-0.4140599213118203,0.08376669148233974
-0.4218731792793085,0.07772283048744937
-0.14572631783073128,-0.06592479504416618
-0.14777844755921854,-0.06517759046161652
-0.14191948253121706,-0.06731135464574986
-0.1439624761842005,-0.06656717235839313
-0.1536376446364922,-0.06304446357891966
-0.13993110790772328,-0.06803585613573748
-0.4165506879525267,0.029540180867431966
-0.4160197949904536,0.029950019633552726
-0.41690342495176996,0.08422772553092966
-0.4184955442330195,0.0842279251842443
-0.4218725341047249,0.08286772324482947
-0.4257793267725597,0.07854050719339481
-0.429685513997072,0.07904135016723574
-0.13801398485930494,-0.06873517966702758
-0.13625562832449145,-0.06937764857211905
-0.1302053200837432,-0.07158923039549928
-0.12835560496588716,-0.07226597790289387
-0.4204733955781266,0.02758754776344994
-0.41992630972643463,0.027839148638060696
-0.41797307403220957,0.02872174835944328
-0.42577873800532723,0.08323558406446716
-0.42968514054389895,0.08201942241901275
-0.4335917169589819,0.07941669652209571
-0.43749792276296257,0.0797693790374578
-0.12630093844328177,-0.07301612049190587
-0.1360618506888869,-0.0694487802985921
-0.1341410645242545,-0.07015264967096382
-0.13215778250058732,-0.07087653126178632
-0.4218795334384684,0.027052099931986658
-0.433591374543118,0.08214726424736203
-0.43749774110369444,0.08121800624021795
-0.4414041266937117,0.08013699945561685
-0.4432061687109853,0.08032477389001419
-0.12425148613395773,-0.07376288636264916
-0.12027965270637525,-0.07521319462260473
-0.12044319894705773,-0.07515325048345106
-0.42773900159059464,0.026309633136237666
-0.4257858706561074,0.026356834784645837
-0.4238327196270409,0.026564279036074116
-0.4414040402500343,0.0808263375995023
-0.1224875446964908,-0.07440571597308107
-0.1184480002280357,-0.07588895882174647
-0.42969213890362434,0.026211566339532862
-0.11459109745898634,-0.07730586473264872
-0.11654161173553598,-0.07658781521536094
-0.11306714549952038,-0.07786710321386381
-0.09737141282420071,-0.08358211181860396
-0.09698491145772055,-0.08372103583603212
-0.106893447612662,-0.0801372471439179
-0.10873779416649493,-0.07945517833936769
-0.4326286517016705,0.025635947029099444
-0.43164530242587507,0.025904496197496185
-0.1126746965854764,-0.07801327715417741
-0.11068880155015105,-0.07873848309423456
-0.09505996628535335,-0.0844149851937432
-0.09897355108474754,-0.0830133707053456
-0.09310538681313663,-0.0851218700345545
-0.10483847795302739,-0.08089598015324602
-0.10279187179884403,-0.08164276279540783
-0.10102591653013118,-0.08228079681443129
-0.43750487342406885,0.024341891733926015
-0.4355516784715855,0.02489959972170732
-0.43359849191360456,0.02539036643820399
-0.44201400600145413,0.02368399894635373
-0.44141119833517367,0.023744764068080886
-0.4394580447859214,0.023972305329114128
-0.09118760843225945,-0.08581697356560192
-0.08724267412646713,-0.08724534162762015
-0.0891969675866603,-0.08653767128177148
-0.08539799371276272,-0.08791701533534582
-0.08334009638201167,-0.08867718595425758
-0.08140935787844912,-0.08939409162555655
-0.443364346452189,0.02356054171645908
-0.08130032318953632,-0.08943492666883752
-0.07748892834556148,-0.09083236384030066
-0.07550958945390754,-0.09155749799100865
-0.06577216636188711,-0.09510310020905396
-0.06392713106673623,-0.09576426380539585
0.27987649673008613,-0.01714639458371334
0.28056603093283733,-0.01689485804368542
0.2980738121764085,-0.010513360518804745
0.2980446695161234,-0.010523969906137439
0.2943892783179762,-0.011857962728712717
0.29617105517242415,-0.011206431211853827
-0.44531746194183697,0.023636503716175265
-0.07953722417686485,-0.09008154934024656
-0.07358504992419625,-0.0922606359804808
-0.07163322616199527,-0.0929750891189362
-0.06972087081468328,-0.0936765351376445
-0.067728520450378,-0.09440108918446735
-0.061862804496467125,-0.09651631258730395
0.26494540081466517,-0.02259390417373807
0.26300780015089154,-0.023302113085692047
0.26297044781827716,-0.023315788258611612
0.261043081730848,-0.02402646731539286
0.25909083945234646,-0.02473977293089167
0.2572229424718979,-0.025422068952160835
0.2747087388285667,-0.019033221220866738
0.276661532490386,-0.018321431109833086
0.2729163902404474,-0.019687114498887423
0.29997428585729824,-0.00982045224860242
0.2922828182480928,-0.012625783596870839
0.290276772057769,-0.013356370816045245
0.2864246368323361,-0.01476010893562452
0.28837743891355605,-0.014048370786108917
0.2844835528213785,-0.01546709051944497
0.28251875471219084,-0.016182875857221595
0.27869532408493936,-0.017578523726540955
-0.44922374181519253,0.023398525938903028
-0.4472705844922733,0.02365615999174262
-0.0598261701425166,-0.09727485756930956
0.010998971810846313,-0.11495645228129671
0.012546484594271339,-0.1143962684404236
-0.004682801822109317,-0.11726437417285356
-0.003366403705694396,-0.11774169719694141
-0.007107787862031171,-0.11638962817555473
-0.005292400176428642,-0.11704395563225156
-0.0016122314727323814,-0.11838130016543481
-0.0010506301626992316,-0.11858689238332024
0.27080323064086087,-0.020457018951991437
0.2687994889497251,-0.021187338786779735
0.26689787307144,-0.021881230664956185
0.2551864398969719,-0.026166617793084046
0.2532347236495286,-0.026881369231090524
0.252081742644416,-0.027305150361749766
0.3016519681606976,-0.009208843565002844
-0.45117689009505385,0.023213004955809677
-0.05841006588597708,-0.09781003517777918
-0.05293455589284996,-0.09980373546392318
-0.052108425001367926,-0.10010159436371731
-0.0501554744060498,-0.10081295276128804
-0.049480743981230736,-0.1010613107044282
-0.04420656649397757,-0.10304413260996814
-0.04431625076228483,-0.10300093479529523
0.012972663035038542,-0.11424287416039985
0.015031687715334047,-0.11350083808437017
0.009069107774801615,-0.1156582684506676
0.007127866654977539,-0.11636321509097577
0.003322214431754264,-0.11774183484585528
0.005198873720939902,-0.11706131629413885
0.00524852949294322,-0.1170433729183422
0.0015671312887095752,-0.11838154623874597
0.0010898073052309696,-0.1185563106444801
-0.007172015752777813,-0.11636662431930393
-2.284089880053791E-5,-0.11896571610546593
-0.009117523565100014,-0.11566906908639013
-0.009614915309858425,-0.11548908405317244
0.01619678178311138,-0.11308051786356516
0.01679917892094112,-0.11286406277784888
0.018840220480512496,-0.11213329301801458
0.17902469977180424,-0.05391877105195534
0.17709821170525153,-0.054623912729542166
0.2514483392217136,-0.0275408033898563
0.24733719679567337,-0.029059729025354974
0.24933556864558182,-0.028322629003447123
0.24543518506712994,-0.029760511977800823
0.24470262609364887,-0.030031496958153794
0.23959364475736472,-0.031942169744986086
0.2390397098644758,-0.03215424928487535
0.30316649020624137,-0.008653004824056891
-0.45313003349310677,0.02306641361904986
-0.05806978693697798,-0.09794067796350173
-0.056020874142396676,-0.09869686089673305
-0.05403931127922307,-0.09940779859846838
-0.048246063671453454,-0.101513908116301
-0.04625671610426919,-0.10225528682699804
-0.04249606256385666,-0.10372074369599797
-0.014295924748795874,-0.11380316871129112
-0.013024234455508328,-0.11425930156404124
-0.011049476442190675,-0.1149709988365985
0.019385225193175648,-0.11193896801750758
0.02091770296370981,-0.11139813882439031
0.021725760837863754,-0.11111515888400131
0.08537678050338238,-0.08798428591578225
0.08722487810974902,-0.08732200434929854
0.1751208554492314,-0.05534714199909121
0.1750615797303509,-0.05536887540794257
0.18490159386112193,-0.051834284904846324
0.18664016299148362,-0.05121868353809367
0.18097842725943497,-0.05320954760756645
0.1828418071884588,-0.052538209043407565
0.1828935446236255,-0.05252077777810283
0.24348765092194236,-0.03048675813168329
0.24155724712609888,-0.031206377711791362
0.23765418506713426,-0.03269060893960183
0.23607256779998376,-0.03332741465258616
0.35080575817964266,0.0372564536801179
0.3486610064892658,0.0333504726033647
0.34526202457592386,0.029444648808315946
0.347652281702019,0.031510524375826965
0.30333116756382006,-0.008592613142043458
0.3515594318806405,0.03868868144748059
-0.45934225584498667,0.02173304691047252
-0.45898956962643245,0.021781836227626826
-0.4570363946468541,0.02218027191026872
-0.4550832079782482,0.02267192080303462
-0.022094163602859894,-0.11103310021909424
-0.020972935450166506,-0.11142433158484383
-0.017241513770270746,-0.11275838998863383
-0.016856293848417324,-0.11289544666119053
-0.04097149055930995,-0.10431570727874936
-0.01508568296519712,-0.1135236942684342
