"Plane Section: Position[X] (m)","Plane Section: Position[Y] (m)"
3.5,9.668656501528909E-4
3.27,9.809921333884986E-4
3.04,0.0010200690687502184
2.8100000000000005,0.001074739753638887
2.58,0.0011658073077338606
2.3499999999999996,0.0013163232124396543
2.1200000000000006,0.0015144246093947993
1.8900000000000001,0.0017845046321851403
1.6600000000000004,0.002193923912859148
1.4300000000000002,0.002804469039563145
1.2000000000000004,0.0034819185550756804
1.1760000000000002,0.0038489338188812438
1.1565953737388526,0.003999999999999844
1.1520000000000001,0.004036101255397818
1.1279999999999997,0.004278031233339683
1.104,0.004517702274099351
1.08,0.004795495612056238
1.056,0.005047386728955518
1.032,0.0053037751073058475
1.008,0.005586513886026436
0.9840000000000002,0.00585635461085788
0.9600000000000002,0.006151511816462597
0.936,0.006477742487931646
0.9120000000000001,0.006824655109020588
0.888,0.00721204072508815
0.8640000000000003,0.0076472489738808914
0.8400000000000001,0.008128835850575614
0.8160000000000001,0.008655725942810017
0.7920000000000005,0.009283273020212026
0.7680000000000005,0.009960618711503565
0.7440000000000003,0.010706845227560529
0.7200000000000003,0.011544803678407805
0.7084563621946938,0.011999999999999837
0.6960000000000002,0.012494750356215367
0.6720000000000002,0.013725813624400167
0.6479999999999999,0.015128693172881638
0.6240000000000001,0.016718011505428385
0.6000000000000001,0.018676715481046643
0.5882869832563318,0.0199999999999991
0.5760000000000003,0.021410101123918154
0.5520000000000004,0.02439524214415528
0.5280000000000004,0.0273311055630198
0.5231480322667728,0.02799999999999873
0.5040000000000004,0.030494236095165383
0.4800000000000004,0.035659582275314135
0.4789143580602542,0.035999999999997916
0.45600000000000074,0.04378278808336092
-0.47894325568860385,0.035999999999996125
-0.48,0.03566435016162604
-0.5233035669867812,0.02799999999999716
-0.5279999999999998,0.02735394654261703
-0.504,0.030500451169986474
-0.45599999999999963,0.04242545406870191
-0.5519999999999999,0.024424980640596124
-0.5885389865553734,0.01999999999999789
-0.6000000000000001,0.01868368834869067
-0.5759999999999998,0.021459956859219625
-0.6240000000000001,0.01669894006813656
-0.6480000000000001,0.015089365362332303
-0.6720000000000003,0.013752079943291105
-0.7082489415923248,0.01199999999999879
-0.7200000000000003,0.011489624534158154
-0.6960000000000003,0.012536958348157618
-0.7440000000000002,0.010655581134016164
-0.768,0.009921284347189648
-0.7920000000000003,0.009247197589553433
-0.8160000000000002,0.008635396290052829
-0.8400000000000002,0.008096752824472092
-0.8640000000000001,0.007611256427551106
-0.8880000000000001,0.00717724568953264
-0.9120000000000001,0.006778306378113167
-0.9360000000000002,0.006440157517001072
-0.96,0.006124505794525502
-0.9840000000000001,0.005819165736317874
-1.008,0.005552737262838656
-1.032,0.005285951729261589
-1.056,0.0050346790201973735
-1.08,0.004794942159226505
-1.104,0.0045453647667795735
-1.1280000000000001,0.00432416927276115
-1.1623817821797617,0.004000000000000065
-1.1760000000000002,0.003894441825088972
-1.1520000000000001,0.004080761410572773
-1.2000000000000002,0.0035209785333134933
-1.43,0.0028188675877759894
-1.6600000000000001,0.002202107543982675
-1.8900000000000001,0.0017929885140853701
-2.12,0.0015089060449198293
-2.3499999999999996,0.0013085341406884289
-2.58,0.001172627756728919
-2.8100000000000005,0.0010817007601606485
-3.04,0.0010158587892913514
-3.2700000000000005,9.789586313670956E-4
-3.5,9.720894998838748E-4
-0.30165837147108615,-0.03047607979821329
-0.2999914933895044,-0.031082787526001122
-0.35547965504469536,0.016240173153792056
-0.355313183048377,0.015999072874190935
-0.3578586729333675,0.019905719135952887
-0.29441122258008445,-0.03311537816417333
-0.29619324107495015,-0.03246649613925487
-0.292304618764203,-0.03388246997446309
-0.2902984970479887,-0.034612984004857086
-0.288399019822998,-0.035304667917664415
-0.28644600434589507,-0.03601583494564073
-0.28450487122995827,-0.03672268309952065
-0.28253997180553214,-0.0374381899820141
-0.28058696225468616,-0.03814938645977317
-0.3032886695679589,-0.029881210152767495
-0.29809249545686944,-0.031774805396381785
-0.35303725653348406,0.012092468570920466
-0.34935871501724436,0.008185645945699278
-0.35157431037021625,0.010423582071159296
-0.3593850703329161,0.021603104473911252
-0.2787154712688274,-0.03883089666016319
-0.30335981739631823,-0.029855441496244143
-0.34789955568814845,0.006232293798769987
-0.3463217043369754,0.0042789231770043405
-0.34766875340526804,0.005970856589513947
-0.3613866563662117,0.023812518326286933
-0.2610568221485,-0.04526122876554363
-0.2591038139344575,-0.04597242891438075
-0.2572352407457126,-0.046652866111692885
-0.2766809376088075,-0.039571764190169854
-0.274727918021756,-0.04028293310702657
-0.27293519345555406,-0.04093579273529055
-0.27082188756047,-0.04170529486744576
-0.26881793198229104,-0.04243502657806511
-0.2649628456154572,-0.04383884779766095
-0.2630243991372816,-0.044544731704258024
-0.3034497715611743,-0.029825354875167846
-0.34571599186729296,0.0036356334636549375
-0.3444650190020152,0.0023255091537532774
-0.3425940152854479,3.720929017961041E-4
-0.34376318075430334,0.0016189062896571054
-0.363290494199699,0.026910922549748438
-0.36378258228530486,0.027719141307890223
-0.25519778818647987,-0.047394803618246134
-0.2532447788948122,-0.04810600080776275
-0.2514555562640849,-0.04875763373242859
-0.26691586047270044,-0.04312766589203881
-0.3035338441540945,-0.029798893646192284
-0.3418103785279761,-4.549134584259387E-4
-0.3407246327828729,-0.0015813230978141608
-0.3388374333549272,-0.0035347418706910315
-0.3398575671522968,-0.0024699529572629305
-0.3658193176464125,0.0316257083802213
-0.2357551022858262,-0.05447504512396423
-0.23762071838215448,-0.05379561627741693
-0.24933875916192302,-0.049528392029870444
-0.24733737282021756,-0.05025720631255636
-0.23957371960211665,-0.053084396921812244
-0.3036751300670927,-0.029752891703819936
-0.3379047536738391,-0.004471483098207884
-0.33685608784105814,-0.005488175297737445
-0.33487669208784904,-0.007441608421295625
-0.3359519249146459,-0.00637484178133905
-0.36719570049025263,0.03361656473410881
-0.36847105206028863,0.035532371179310136
-0.23176170767697268,-0.0559292549967923
-0.23371471582159142,-0.05521805465731472
-0.22997603373992134,-0.056579674004585676
-0.22785573153720595,-0.05735176593210253
-0.22585691475074474,-0.058079651992996036
-0.24543274398702875,-0.05095079576899367
-0.24347973648713866,-0.051661997878988924
-0.24154398849462305,-0.05236692840423904
-0.30382351074840463,-0.02970636545778925
-0.33279286599991975,-0.009395057799804213
-0.3339990976941517,-0.00828808588108047
-0.3711010667988027,0.03929416719169685
-0.3712246793843449,0.039439049838390285
-0.214275058374842,-0.062297439041242554
-0.216137712968763,-0.06161905117521983
-0.22394971237044153,-0.05877415870894233
-0.221996715977742,-0.059485391320914266
-0.22006368028540085,-0.06018938519566652
-0.21809071496986915,-0.060907833964747915
-0.3040439185786231,-0.029635214108298752
-0.33204625412244626,-0.010096281208681486
-0.33062441275637383,-0.011348520350827222
-0.3281185807604411,-0.013302035416038239
-0.3281405001842916,-0.01328354730247707
-0.37276269903106035,0.043345539283869215
-0.2092230286910327,-0.06413732434069186
-0.2102787387337156,-0.06375279004696677
-0.21223174106102338,-0.06304157373229571
-0.304275765128269,-0.029563106154322435
-0.33009339698568974,-0.011817327525367087
-0.32618761303108246,-0.014811752113941163
-0.3256926619209255,-0.015255538042484751
-0.3234453303859278,-0.01720901287118903
-0.3242347512578051,-0.016503010929507164
-0.37345986921458174,0.047251897848174074
-0.208496720526197,-0.06440216791047074
-0.2063730562573563,-0.06517610742522537
-0.20437701843360306,-0.06590362840258049
-0.3045126151033901,-0.029492461421381816
-0.32122762060304344,-0.019162483089162397
-0.3222818978423145,-0.0182479646067168
-0.3750055972562064,0.050341716896192754
-0.20051476569988613,-0.06731172377627825
-0.20246738850243326,-0.06659946523072637
-0.19858477790912676,-0.06801568083549075
-0.30498492591115156,-0.02933669840179366
-0.30548285578917117,-0.029165790936260337
-0.30552160122320127,-0.0291554968479412
-0.32032903493046055,-0.01993190860342625
-0.3185724046271469,-0.021116021406518422
-0.31573117668157563,-0.02306958867728559
-0.3164231862039292,-0.02251020431155579
-0.3783047845399838,0.055065152070894435
-0.1848931883757941,-0.07300815844749532
-0.18289980946037754,-0.07373497246507321
-0.19075166103933555,-0.07087304218651164
-0.188798904958157,-0.07158493472932215
-0.18702043169832439,-0.07223284015570318
-0.19660934051078682,-0.06873574770325855
-0.19594186314398715,-0.06897909534553294
-0.19465676212414296,-0.06944812822141577
-0.19279750398588053,-0.07012662326194632
-0.30562592868932725,-0.029074836434687362
-0.3183761163714187,-0.02125834583486292
-0.3144703000201509,-0.024044637283463847
-0.3129513364702211,-0.025023146392835746
-0.3815528646600259,0.06287815774059768
-0.3892595435181997,0.08631685759610985
-0.38566911150892813,0.0785037986381282
-0.3906246665487048,0.0884449158464844
-0.1776105669429279,-0.0756625942516489
-0.17903484542789067,-0.07514363092670652
-0.1809876242400124,-0.07443180080642711
-0.27305160732174216,-0.041255482355576405
-0.2748313748656432,-0.04056704083595091
-0.27650797985867903,-0.0400461841256907
-0.2721776239173853,-0.04162306816280896
-0.305752832996147,-0.0290056003717002
-0.30665847791737133,-0.028400413406416913
-0.30617610463607986,-0.02893045102878654
-0.31251737276185765,-0.025315185964968328
-0.3828152192407759,0.06883220907761552
-0.3832227633589015,0.0706909177608208
-0.39410733827357886,0.09413011226702653
-0.1771073618130892,-0.07584603565315945
-0.17512912213751736,-0.07656683622369131
-0.17317635534059475,-0.07727869933947668
-0.17132024635753318,-0.07795657451754859
-0.2748929230150091,-0.04073606111801739
-0.27312949449639684,-0.041469372007250545
-0.2720263782785063,-0.04169392070105775
-0.27100418629632483,-0.04220591404240336
-0.27276505340549156,-0.04161985880655302
-0.2703278633170772,-0.042507353090612675
-0.3105644174661755,-0.026405607718849616
-0.30969882014000916,-0.02697677768208278
-0.3086114908591487,-0.027680340465026564
-0.39831141396597336,0.10194326674080757
-0.4129916217964041,0.09413305167209166
-0.41406204967840854,0.08919757591487008
-0.1692714779092493,-0.07870422748990731
-0.16721698129703522,-0.07945271582329139
-0.16142170842771658,-0.08156385434008169
-0.16341270778432992,-0.08083852687813305
-0.271028026677451,-0.04227138323983567
-0.41519022931343896,0.08632089379844018
-0.39843502745953546,0.10218815719212442
-0.40378559250376234,0.10975661891055619
-0.41406086922977003,0.09678139857624271
-0.41654314289679883,0.10194610457345823
-0.15169489754243098,-0.08510638421660353
-0.14984115534435138,-0.08578144141530927
-0.15950689368955073,-0.08226148281283632
-0.1575539698101334,-0.08297291455696816
-0.15562908048665824,-0.083673991441924
-0.16545341844766714,-0.08009514112625002
-0.43750580761621527,0.04899511719569162
-0.43504980190988796,0.05116773458486647
-0.4218756454316933,0.08215848860878941
-0.4062457776100534,0.11343071820445479
-0.42078943126335444,0.1097592656177871
-0.14573700428095082,-0.08727668358698704
-0.14778896196156954,-0.08652900653265014
-0.14193075323908816,-0.08866484761463861
-0.14397341006760128,-0.08791974037996819
-0.1536479610547447,-0.08439533592497929
-0.13994292291095717,-0.08939084378031444
-0.42969194233252633,0.05776580942978464
-0.42889607755187065,0.0589792768306784
-0.43359899651440426,0.05259962621905355
-0.4313539215220363,0.05507340935541362
-0.4409344907238492,0.047262400510038896
-0.426460699655296,0.07851014799211281
-0.13957747211321847,-0.08952454513730018
-0.13021852775431056,-0.09294804151861707
-0.12836836353964576,-0.09362355547320363
-0.4414123624537003,0.047036984907413634
-0.4281538165168084,0.06288541134245346
-0.42762531030000495,0.07069782917322791
-0.1276027495509965,-0.09390359642058563
-0.13802740982497697,-0.0900945884023133
-0.13607542975463321,-0.09080861198514555
-0.13415378115303725,-0.0915101126085176
-0.13217075271510595,-0.09223469044102606
-0.4453187891392125,0.04590216825899168
-0.42819746610098747,0.06569791828248764
-0.4285783821056113,0.06679172756220164
-0.12631521525275335,-0.094377867196728
-0.44922516842582927,0.04507186703635127
-0.12426836556957496,-0.09513178022059855
-0.45313149541491116,0.04457755266019171
-0.12250654569079336,-0.09578043589985666
-0.12101178760054124,-0.09633141890404871
-0.11846877607473043,-0.09726855173054001
-0.12046416917143646,-0.09653337794613427
-0.09506517496810178,-0.10575182756733507
-0.09515209605352115,-0.10572038889401338
-0.09897590617067431,-0.10434237473474414
-0.09699033391317388,-0.10505846468109128
-0.09483335741297581,-0.10583645646007594
-0.10690737608857237,-0.10149803276325228
-0.10875526831163675,-0.10082570175989274
-0.10102518514353603,-0.10360132371012543
-0.4553807883087926,0.04335839907968919
-0.45703809575596666,0.042327081507336
-0.11461425678079595,-0.09869200197710926
-0.11656387485850972,-0.09797149201467231
-0.11269613171684635,-0.09939467872067739
-0.11070908892962533,-0.1001167325919383
-0.0931133819638688,-0.1064663648612654
-0.10484638137414269,-0.10224021921598281
-0.10242398661040501,-0.10310010190930052
-0.10279344337065179,-0.10296961353844622
-0.46094469722013676,0.040069394887274255
-0.09120026432131861,-0.10717426773329915
-0.08726035225274278,-0.1086164282711222
-0.08921293226148072,-0.10790405220747332
-0.0854163313259855,-0.1092899130295041
-0.08335551410899311,-0.11004206431108352
-0.08131007115448848,-0.11078423377805088
-0.07551568290523766,-0.11289676810495058
-0.07749603550570952,-0.11217441811337818
-0.06577893826147756,-0.11644423344845292
-0.06577516634844992,-0.11644564219140982
-0.4638462559334149,0.03945346671214653
-0.07954543087956521,-0.11142662353197777
-0.07359059762925206,-0.1135984071990018
-0.07163697172171304,-0.11430791107052163
-0.0697221580964833,-0.11500260587225047
-0.0677302292240614,-0.11572831747422621
-0.06394530652677932,-0.11713671378742599
0.2961637198501444,-0.032576976302183085
0.29438119986295286,-0.03322657914385263
-0.46485107506302115,0.03924836894880335
-0.06207040416483915,-0.11783633839984076
-0.006176164100571199,-0.13808161386155912
-0.005303856696084657,-0.13839777390531482
0.26103869509217015,-0.04540525445270714
0.26050853798706985,-0.045600322865433626
0.2766537092212017,-0.03969076970610927
0.27470121817632664,-0.04040339176477263
0.2729093244022989,-0.04105853539073609
0.29227453963182193,-0.03399386725716405
0.29026868530828703,-0.034724983801975015
0.2864165690040826,-0.03612877449904441
0.2883694738942151,-0.03541731878886784
0.28625800736952867,-0.03618658199705622
0.2786880090862884,-0.038949259212429185
0.28055931554438995,-0.038267241486935666
0.2980666450567054,-0.03188394251982669
-0.46875749456862514,0.03815967980838167
-0.06188701783931825,-0.1179053434542202
0.01295841716677685,-0.1355945556138157
0.01501615826520468,-0.13484899314694104
0.010986090627233698,-0.13631188349914006
0.005235535803544482,-0.1383983513052633
0.00696171666376741,-0.137772337840625
-0.003378404621002944,-0.13909694700253425
-0.007182599831418333,-0.1377181119844655
-0.001624389776830883,-0.1397365456728796
-6.386844233706381E-4,-0.14009806780381373
-0.008586073218728759,-0.1372122750743566
0.015642700985932175,-0.13462246838040845
0.01678351765959136,-0.13421185635998645
0.018822173406930102,-0.13347452946313182
0.27117109390955096,-0.041693605813030055
0.26494292941781966,-0.04397795487501445
0.2630051118201798,-0.04468556775075701
0.2590900982456514,-0.04612858091698358
0.2572253925723308,-0.046819649457846876
0.2999663982782319,-0.03118869696466203
0.28447631479263163,-0.03683803711348009
0.2825121431951973,-0.037555544693521334
-0.4726639814228734,0.03663830755080408
-0.05937777932099997,-0.11881684836063068
-0.05807810856555083,-0.11928606425237874
-0.0598448147335365,-0.11864859441572154
-0.05602592362906066,-0.12003326056183733
-0.05534568928439254,-0.12028511990716265
0.009056363207189073,-0.1370140688004265
0.007114458076929326,-0.13771711302401732
0.003309495421243304,-0.13909749246037834
0.0015546528268694057,-0.13973790510058284
9.503443002186448E-4,-0.13995923886192593
-3.527013163166011E-5,-0.14032161678665322
-0.013032409434342444,-0.1356042901668587
-0.013610657290742323,-0.13539492212100737
-0.011059479019159948,-0.13632100208052528
-0.00912726884806185,-0.13701833175208206
0.02291578587390196,-0.1320073900568252
0.02273528234371482,-0.1320716246675265
0.0200067378613777,-0.13304718852010397
0.020895648478087264,-0.13272836138059388
0.18979700522943993,-0.07136636738190105
0.1887815257320473,-0.07173103657248397
0.18700223989764753,-0.07237670889530373
0.18487606048306113,-0.07315495257762415
0.1845295973453283,-0.07328261861106175
0.2707971059540826,-0.04183102698133614
0.2687943728080632,-0.04256411922465036
0.26689437824617823,-0.0432624679626998
0.2562033551783579,-0.04720813765798533
0.30164465782846434,-0.030577274619625804
-0.4746382157027442,0.03554889647127821
-0.05405105836234647,-0.12076259173103546
-0.05213033043908498,-0.1214842846063241
-0.05063712798960174,-0.1220621560464498
-0.02281095991226137,-0.13208570013769427
-0.020971079634948205,-0.13274177114142
-0.018305863774044497,-0.13370367679071013
-0.016858861671170317,-0.1342250363956004
-0.023293047558249198,-0.13191535782021896
-0.015090743080171418,-0.1348601292437412
0.024695845896030477,-0.13138119238603777
0.025235553494293735,-0.13119121607938045
0.08536038516686185,-0.10933006747242083
0.08720697572467002,-0.10866364415600016
0.19075546086626682,-0.07107736020918583
0.18975862357152987,-0.07138176499893795
0.18702161075636006,-0.07242995567667533
0.18810898845169438,-0.07204288057432272
0.18488182745961124,-0.07317080489186938
0.184522260385249,-0.07329649316692673
0.2560128465923584,-0.04728819677643989
0.2555634996470523,-0.0474583916431456
0.2556408838107406,-0.04747518421651837
0.303325131556059,-0.029960546550672464
-0.4765705678788513,0.03447704142571721
-0.05019392570884429,-0.12224108036678413
-0.04844736218765107,-0.1229531965476354
-0.018898770605130177,-0.1334911482338721
-0.02559011496765443,-0.1311205086815584
-0.024773913455484627,-0.13140181132739653
-0.04438861776723865,-0.12452219478351176
-0.04254569292833629,-0.1251795607836163
-0.03988883504954211,-0.12606975440299723
-0.038400692637630615,-0.12657098461798638
0.02724204734025691,-0.1305028809603079
0.026705220023124497,-0.1306862378717277
0.06571710410948745,-0.11646820882512365
0.06767270312904765,-0.11576412999372625
0.06387581122010182,-0.11713965158826611
0.059779022256085085,-0.11866172720537319
0.061815803320728585,-0.1179035721339804
0.09115273315409711,-0.10723754442230725
0.09307003666014267,-0.10654113777452329
0.08916214075955926,-0.10795837238384988
0.08329924392636039,-0.11008132985105398
0.08125417892373715,-0.11082453625798722
0.07545729530999822,-0.11293021434286438
0.07743796678099102,-0.11220873952995938
0.14190788244542715,-0.08879587241613084
0.1410695276900628,-0.08915555278175699
0.14982976121436115,-0.08594400972656244
0.15168668609916652,-0.08527770082457783
0.14777605114654374,-0.08668740630433788
0.1457199212057647,-0.0874236153207878
0.1439492742373708,-0.088047286434067
0.19086872132954077,-0.07103890639277688
0.19075751465397847,-0.07108300567833546
0.18880525271486587,-0.07179625750488726
0.2572336725798149,-0.046989371565322686
0.23768357881949745,-0.05416226479299947
0.23963550658779664,-0.05344809439487965
0.23582029019082223,-0.05484809174480064
0.35489215604625335,0.015888526918334263
0.35264319258470866,0.01198262693008122
0.3494383989820431,0.008076875720145506
0.35155071483427835,0.010530793495233863
0.30352431873615393,-0.029890102455464987
0.3554579095068583,0.016599562832092803
0.35782990606095855,0.019794319694542976
