"Plane Section: Position[X] (m)","Plane Section: Position[Y] (m)"
3.5,4.0057968740513257E-4
3.2700000000000005,4.0606812786740405E-4
3.04,4.219904528765773E-4
2.8100000000000005,4.452503467456588E-4
2.58,4.8162715493174776E-4
2.3499999999999996,5.439073152717258E-4
2.1200000000000006,6.262834009635149E-4
1.8900000000000001,7.379384968426648E-4
1.6600000000000001,9.116675305540227E-4
1.43,0.0011740251252515274
1.2000000000000004,0.0014556369457055292
1.1760000000000002,0.0016112063002268976
1.1520000000000001,0.0016679637797147712
1.128,0.0017302132141057522
1.104,0.001803796921161744
1.08,0.0018780692146007502
1.056,0.001953570854049842
1.032,0.0020391802770890633
1.008,0.002131103662919991
0.984,0.0022246667778743
0.9600000000000002,0.002325751393939997
0.9359999999999998,0.002438876517530147
0.9120000000000001,0.0025585694183675413
0.8879999999999999,0.002687043254798403
0.8640000000000001,0.0028335207272262132
0.8399999999999999,0.0029977522676794066
0.816,0.0031737790332931363
0.7920000000000003,0.003381419316670544
0.7680000000000006,0.003617277351485226
0.7440000000000004,0.0038873906894289992
0.7355028679606597,0.004000000000000331
0.7200000000000003,0.0042049945031695304
0.6960000000000004,0.004540699730715467
0.6720000000000003,0.004946949119410895
0.6480000000000004,0.00538910202898785
0.6240000000000001,0.005886893088706557
0.6000000000000002,0.006536477330327123
0.5760000000000001,0.007435805725138277
0.552,0.008605182661447105
0.528,0.009997885244913768
0.504,0.010889150140791067
0.4848677774764542,0.011999999999999716
0.48,0.012292376123995294
0.45599999999999985,0.01272915339647318
-0.4843193775625668,0.011999999999998142
-0.5040000000000004,0.0109572217162727
-0.4800000000000003,0.012237896378967595
-0.4560000000000002,0.012662605449451931
-0.5280000000000004,0.010059570450724373
-0.552,0.00861415971620997
-0.5760000000000002,0.007461438584302943
-0.6000000000000002,0.006572695772546431
-0.6240000000000001,0.0058876225234097915
-0.6480000000000001,0.0053660421582451285
-0.672,0.004939733474539023
-0.6960000000000002,0.004536489418813108
-0.7347977474099919,0.003999999999999169
-0.7440000000000001,0.0038815598471718016
-0.7200000000000002,0.00419025841724633
-0.768,0.0036072353237507136
-0.792,0.0033794127486431783
-0.8160000000000001,0.0031777887709242714
-0.8400000000000001,0.002998124839158023
-0.8640000000000001,0.0028399342126538924
-0.8879999999999999,0.0026948044417906707
-0.912,0.0025625300049802913
-0.936,0.0024426290531413507
-0.96,0.0023298669951026807
-0.984,0.0022289348748297786
-1.008,0.0021312132024756
-1.032,0.002042111489521291
-1.056,0.001957900176180612
-1.08,0.0018750695709999425
-1.104,0.0018031556209786755
-1.1280000000000001,0.0017323939821130326
-1.1520000000000001,0.0016703223850910768
-1.176,0.0016112937698503575
-1.2000000000000002,0.0014557451749007372
-1.4299999999999997,0.0011742146439098823
-1.6599999999999997,9.116074718900172E-4
-1.89,7.397884557051864E-4
-2.12,6.237507089102824E-4
-2.3499999999999996,5.418567820419118E-4
-2.58,4.838742285766304E-4
-2.8099999999999996,4.4707268453831423E-4
-3.04,4.210201051844188E-4
-3.2699999999999996,4.0562108446215526E-4
-3.5,4.0220246301038323E-4
-0.3016436562288979,0.008121576135718116
-0.2999767206048675,0.007514974342986271
-0.29439629282056373,0.005482785589813093
-0.29617834407616744,0.006131577525396814
-0.2922896431886396,0.0047158195521400225
-0.2902834788244637,0.003985422647145053
-0.2883839601875367,0.0032938524683261516
-0.286430905975966,0.0025827918225321328
-0.2844897352452823,0.0018760469741507363
-0.28252479096943073,0.001160663272921536
-0.28057173129016744,4.4960446743145984E-4
-0.30318777341237313,0.008684967903788544
-0.29807762885569017,0.006823181420796686
-0.2787001949790453,-2.3178125255621538E-4
-0.3033455443039633,0.00874191573009726
-0.2610411775077887,-0.006661101721368205
-0.25908812009973137,-0.007372166765063273
-0.2572195101275896,-0.00805250294174355
-0.2766656197481141,-9.725346126330651E-4
-0.2747125637435264,-0.0016836035111467862
-0.2729198049533686,-0.00233636915501175
-0.270806454481726,-0.0031057488542490545
-0.2688024549766264,-0.0038353599235154494
-0.264947287804532,-0.005238959220887013
-0.26300880162796964,-0.005944734101193784
-0.3034107122113095,0.008763359447186505
-0.35817831883633766,0.04678149493097853
-0.35937459040801234,0.04709377933393877
-0.35742151534900884,0.04658220957386771
-0.35546847024257766,0.04576387833920076
-0.3535154124073876,0.04507590964878755
-0.3529801954863476,0.044827862370453546
-0.3515623673037387,0.04425754990380218
-0.34960932774441505,0.04338240762691728
-0.3485940257442462,0.04287430909008566
-0.34765629849566165,0.0424016687935417
-0.3457032853479883,0.04125602959547119
-0.3452431133622288,0.040920856893529256
-0.3422045701078339,0.03896743519708657
-0.34375028172396505,0.04001285320267104
-0.33957843444921865,0.037014053768631795
-0.3398443025000568,0.037239489167017525
-0.2551820192420934,-0.008794335191396536
-0.25322896657443394,-0.009505413255271556
-0.25143970541294897,-0.010156940374004303
-0.26690033996232754,-0.0045278797566038085
-0.30343113050785203,0.008766226557741737
-0.36328076030820955,0.04791431803714417
-0.3613276718825518,0.04753964385565421
-0.34179728555386607,0.038693336923311464
-0.3378913281710319,0.035696285910934815
-0.33714088945920084,0.035060690754404045
-0.3349022238476369,0.03310734715900806
-0.33593836408043665,0.034048224993342716
-0.23573889643830473,-0.015873376822673736
-0.23760456546593633,-0.015194093338389402
-0.2493228655841701,-0.010927581317261518
-0.247321436863068,-0.011656279211969219
-0.23955761752230714,-0.01448301359552454
-0.3036041867548426,0.008823781424919033
-0.3328053339473149,0.0311540174067653
-0.33398541129429016,0.03228438873115445
-0.3702310453187472,0.048735796783464964
-0.37109317514694423,0.04878688480086254
-0.3671869554116198,0.04847673621820569
-0.3652338549415497,0.04822541578209012
-0.231745422262378,-0.017327368178709557
-0.2336984731657945,-0.016616285269095102
-0.22995969226096435,-0.017977633234483356
-0.22783933641474224,-0.01874957783214912
-0.22584048242690408,-0.01947736172841274
-0.2454167630423118,-0.012349745117655537
-0.24346371389986315,-0.013060832864017281
-0.241527924915325,-0.013765650814470325
-0.30384704827417963,0.008905721774287244
-0.3320324686551026,0.030416631643021927
-0.33083662648997225,0.029200700170413804
-0.37304629694561514,0.04881976679896073
-0.3691400617961338,0.048667483413352926
-0.21425834311303488,-0.023694371754645137
-0.21612106337026904,-0.023016164215223997
-0.22393324127597952,-0.02017176196618377
-0.22198019313689593,-0.020882852468430437
-0.22004710885365084,-0.02158671290509101
-0.21807411752264283,-0.022305090229331158
-0.3040754424312582,0.008980188098922889
-0.33007953680091623,0.028438419136472617
-0.3289695941547304,0.027247392861749792
-0.3271790854623537,0.02529409302495002
-0.32812661482846117,0.026359002181943203
-0.37499942761022864,0.04876184766040087
-0.20847979213490264,-0.025798515353919985
-0.21026196086277554,-0.025149550833108228
-0.204359648291592,-0.027298762740949983
-0.20635588772353694,-0.02657179539196711
-0.21221499242833283,-0.024438414809301173
-0.30430859539106103,0.009053231767426138
-0.32617369632289495,0.024244078827987674
-0.32536627588538053,0.023340791010662464
-0.3233591955445499,0.021387470027538498
-0.324220764194707,0.022268672578556088
-0.37531133634119385,0.04873629282939167
-0.20416767480482376,-0.027368673172745932
-0.3046213254692118,0.009155539996564762
-0.32105443303357706,0.019434119978358446
-0.32226780912491926,0.020528224387812127
-0.3810061211950001,0.04678372386594708
-0.3808589839646324,0.046904779150814854
-0.37890575027334605,0.04801785363561306
-0.3769525744965078,0.04853779303303285
-0.2004971866901087,-0.028706284715717713
-0.20245004663564356,-0.027994677313002373
-0.1985671130919886,-0.029410006287485517
-0.19277940072914918,-0.03151974506920812
-0.19463890988547722,-0.030841939244455288
-0.19117911945031285,-0.03210303768601801
-0.30510986429639075,0.009319650524773467
-0.3054760184518502,0.009444051000005942
-0.30537870020588775,0.009415959426162347
-0.320314837226465,0.018960128298252464
-0.31836855813001147,0.017480732716884093
-0.3154513078014158,0.015527322863631784
-0.31640885215331105,0.01624666974897544
-0.3808590870856914,0.04584865719567813
-0.3806743760341837,0.04483056646463031
-0.18487506714155552,-0.03440123142919959
-0.18288160498328637,-0.03512781696733127
-0.19073336945531116,-0.03226564696489247
-0.1887807479210144,-0.03297790919813488
-0.1870025886598963,-0.03362667712086029
-0.19659172160535776,-0.03013019938310144
-0.30562931743201716,0.009521433367116229
-0.3183618570696585,0.01747661071102989
-0.31445585829949696,0.014903431027989722
-0.3125028522234681,0.01368536704064917
-0.37908597119529774,0.042877286361502835
-0.17708896880022423,-0.037238362626299766
-0.17901647854963146,-0.036536029589606375
-0.17315785633693231,-0.03867073540575021
-0.17511074363989795,-0.037959203144134854
-0.1713011505453728,-0.03934697168916181
-0.18096944598683906,-0.035824717428129996
-0.31234651338881103,0.013573894698343799
-0.30576756893748874,0.00957346874626491
-0.3066438132668926,0.010243467403495979
-0.3062478589235679,0.009667049199530209
-0.3789062670010841,0.04272574829312416
-0.3771218418105967,0.04092396957216161
-0.16925182818909162,-0.04009310353992117
-0.16719731232453283,-0.04084153906059542
-0.31054984398500174,0.01248944978340517
-0.30914677802894536,0.011620457262904444
-0.3085968387163044,0.01126311746798275
-0.3752023644498505,0.03897065714270091
-0.3769533322702423,0.04077699727793663
-0.373537695809462,0.0370173695930774
-0.37500040375056076,0.0387646342473441
-0.37219762614632174,0.03506411373770184
-0.37304751587504614,0.03633601087661981
-0.1654339332683901,-0.04148446922378139
-0.16518344543438626,-0.04157578490547035
-0.1614028516911375,-0.04295490865878445
-0.16339359703923945,-0.04222888346604291
-0.37121125306479363,0.03311089241770245
-0.370402357985543,0.031157688426873584
-0.3710947340889842,0.03282086458239282
-0.1516772975128137,-0.0465008903983331
-0.14982383470873173,-0.047176715005998
-0.15948831058986523,-0.04365328878099579
-0.15753561013999393,-0.04436533426133622
-0.1556107886113307,-0.04506659738603837
-0.3699800326457061,0.029204522181194688
-0.14571989917650396,-0.04867254930260112
-0.14777177209297987,-0.04792463934679641
-0.1419131054193811,-0.05005922304472974
-0.1439561880582516,-0.04931528514425222
-0.15362994404653288,-0.04578869682958456
-0.13992454867551865,-0.05078322435637152
-0.3701043234298025,0.02725140930779292
-0.13800696789340894,-0.05148129075624365
-0.1360539376621817,-0.05219243044497808
-0.13472124000424732,-0.0526788210462273
-0.1301975161702014,-0.05433318085494681
-0.12834718802827758,-0.055008244853694224
-0.37102201823459313,0.025298373903344835
-0.12629213770703807,-0.055757333440903376
-0.13413245010087838,-0.052894373675665095
-0.1321502140773309,-0.05362112839060702
-0.3710954754275416,0.025228390915531366
-0.12424310532549222,-0.05650525274653556
-0.12043433660271952,-0.057894294548481544
-0.11843622947188409,-0.05862201522457487
-0.37304874398171606,0.023758265571308217
-0.11467470044166483,-0.05999587886516808
-0.1165287498427074,-0.05931787501737325
-0.12247955720030455,-0.057149162689901334
-0.10687638941816806,-0.0628557839921928
-0.10872381418970785,-0.06218216914800048
-0.3746271980829832,0.02334560090827558
-0.11457675795045924,-0.06003186665243217
-0.11265851724570217,-0.060734226450969125
-0.11067461929175228,-0.06146491782410942
-0.10481781828613965,-0.06360462584567284
-0.10277282623359937,-0.0643558419721143
-0.3750019150794943,0.023286247165534752
-0.09896749414211542,-0.06576212349277019
-0.09698293900411059,-0.06648100600621504
-0.10265091120851616,-0.06440125589505534
-0.1010138544503995,-0.06501305675469048
-0.3812316814927197,0.021393120768928634
-0.3808614541332585,0.02160636445010443
-0.37890825464133693,0.0223691836176205
-0.37695506137184526,0.023068275308817436
-0.09118440530204616,-0.06857356237519434
-0.09196807966089174,-0.0682906699049716
-0.08723943827218833,-0.0700018399483002
-0.08919331108040643,-0.06929301451763313
-0.08539458900153708,-0.07067304986873627
-0.08332993472315534,-0.07141466239665241
-0.0812831589324825,-0.07215317062373869
-0.0950590952947805,-0.06717798016214281
-0.09310414950306635,-0.0678838584903742
-0.07549284344373053,-0.07427689180226285
-0.07747279280583705,-0.07355343405551709
-0.38273141666988625,0.01944014219562645
-0.0795204523375356,-0.07280087148364597
-0.07357105711463957,-0.07498759203501949
-0.07348270380690339,-0.07502084060030598
0.261045610286876,-0.0067508631944767535
0.25970411242535063,-0.00724060725819
0.27870035314552016,-3.0979370171856E-4
0.28057159665785514,3.7239682926881767E-4
0.2782268253454675,-4.824431413529394E-4
0.29807939660626775,0.006753806086379303
0.2968800959844784,0.006317060311457984
0.29617666755252586,0.006060687342363722
0.29439450151781843,0.005410224757648886
-0.38281480989911376,0.019243054186539967
-0.07162564814461733,-0.07571966460632142
-0.06971283384014762,-0.07641985042737216
-0.06772241895665825,-0.07714972048362984
-0.06583740836068172,-0.07784596507330085
-0.06337823549306985,-0.07874130273367981
-0.061864356858495895,-0.0792859647343511
-0.0657727271093258,-0.07787002952061106
-0.06393186413432383,-0.07854265218147341
0.26495092693696554,-0.005326539271964158
0.26301285405642605,-0.006033450138784472
0.2590934504454585,-0.007464395144402751
0.257226533235893,-0.00814938367805474
0.2766664917743682,-0.0010525090940043944
0.2747141207416668,-0.001765460624319643
0.2729219057613279,-0.0024197209641103217
0.2999797069559356,0.007447021260269202
0.2902822078238875,0.003911240702401846
0.29228792717108154,0.0046427246937663135
0.2864300477465144,0.002507571165119571
0.28838289449581245,0.0032191864446005193
0.2844891128163686,0.0018001799181132747
0.2825244013621213,0.0010841564947131183
-0.3843909516920629,0.01748717922537739
-0.05981844679878538,-0.08001903396269604
-0.0034178027374808183,-0.10046333078695156
-0.0033582119078220196,-0.10048490181481491
-0.005774710414022976,-0.09961344697331369
-0.0052850858882995825,-0.09978953327559993
-0.0029267563853084774,-0.10064211134283649
0.270808972530605,-0.0031902474698837623
0.26880563054993395,-0.003921665736904942
0.266903756633679,-0.004614848293557031
0.25518982215309344,-0.008893359201135324
0.25323808257907715,-0.009608046177103403
0.2514501189355339,-0.010263139435533308
0.24733328098151564,-0.011766410218529472
0.24933378980267085,-0.01103518402413884
0.24620603996985888,-0.012179755421169468
0.23957779144108812,-0.014616037996204128
0.23762853487593194,-0.015337549055816573
0.23684951182166597,-0.015625834713204823
0.3016570573134812,0.008059009174582913
-0.3867212374750809,0.01742458747113832
-0.38476811642355213,0.01738405357459178
-0.0580529975309127,-0.08065995512898269
-0.056004971427315045,-0.08141857426190846
-0.055336732458794405,-0.08166905970736511
-0.04843306685233852,-0.08418255190368033
-0.04823653526797146,-0.08425312839164573
-0.04429234698940938,-0.08570067534979524
-0.042457807046049345,-0.08638106948541512
0.01298440933425817,-0.09699260917283509
0.013163246671710203,-0.09692838728496726
0.009475138288793808,-0.09825801045114302
0.009078553565943693,-0.09840169573285039
0.011009529662433697,-0.09770292830837554
0.0071372217257418035,-0.09910643373289076
0.003331411485530229,-0.10048490395054543
0.003559861152513041,-0.10040212072235075
0.005258291249113635,-0.09978789546845278
0.001576018737465602,-0.10112391318244121
0.0015474908862312333,-0.10113434108748276
-0.007166019361946201,-0.09911571845894929
-0.0016038578793922547,-0.10112458742302856
-1.4117833221708229E-5,-0.10170746207665912
-0.007919779911444855,-0.09884479990302254
0.17710545488198198,-0.03736126169201719
0.1790336981471248,-0.03666094416868418
0.24543099228115484,-0.012466431298569357
0.24348100944063034,-0.013185946326692823
0.2415462929854522,-0.013893712056005116
0.23576872226510587,-0.016032927928483237
0.30333631370662273,0.008674734746866343
-0.3886743888308954,0.017154757795219935
-0.054034403971522704,-0.08215971161685008
-0.052109367288082326,-0.08286957342475317
-0.050152461740098214,-0.08357006900243635
-0.04718521013001336,-0.08463687259539293
-0.04624239838437035,-0.08498135386173744
-0.04039904415228202,-0.08715799536760083
-0.03989829360295077,-0.08735232771995573
0.01504521429846565,-0.09625546322723189
-0.01145946965408288,-0.09757456414842848
-0.011044514418461058,-0.0977227664809756
-0.009111362762808108,-0.09841757229878613
0.015990982340936245,-0.09591798439481444
0.016815926733879966,-0.09562753989474716
0.01822079286085268,-0.09513439037457219
0.1751260133759424,-0.03807875975501285
0.17317263178559977,-0.038788933957395196
0.17131629195714537,-0.03946617626352031
0.16926680314965237,-0.0402118507829068
0.16721260765556106,-0.040961167132044514
0.1654627425757407,-0.04160060044200329
0.18491229971197323,-0.0345811465939732
0.18529701605564425,-0.03444613258154136
0.18291168999159085,-0.035288088949529776
0.18004486512432788,-0.03629475426028733
0.23178264138581706,-0.01750723863279093
0.23373171557555822,-0.01678522634859373
0.22999952637439952,-0.018164690665278843
0.22788028368307375,-0.018939694666527774
0.22686876062490904,-0.01931985165399642
0.30337063637049577,0.008687120649190399
-0.3906275372517216,0.016914987013890433
-0.03837734757648869,-0.08794974513014703
-0.013022058663163453,-0.09703340152333118
0.018863290840719107,-0.09491414550726737
0.06574635617829577,-0.07787520631655462
0.0676976782986135,-0.07715937204748502
0.06390367084969413,-0.07854282197785015
0.05979726571811081,-0.08003846433302798
0.061839200799486904,-0.07929447683841111
0.05597821393244948,-0.08142268510279158
0.05803180009897428,-0.08067933967550282
0.053999364052912835,-0.08214107260281647
0.05207369120181799,-0.08284919096387515
0.050841888312291895,-0.08330650573197321
0.08540660854251456,-0.07078370604124991
0.0858576760174885,-0.07062809723691864
0.0815739238078449,-0.07212435768412301
0.08128196499678458,-0.07222750327929314
0.07548209813691284,-0.0743249830117978
0.07746464950767336,-0.07360867488649969
0.16142364121384734,-0.04308963882351832
0.16341282744004532,-0.042359327897107064
0.16544972551849949,-0.04160546358116605
0.1498555473552069,-0.04734146929086342
0.1499580489304867,-0.047304557214984194
0.18492493021525191,-0.034615859160782275
0.1809920806982273,-0.03596451416798926
0.1842715775045537,-0.03491288458194623
0.22588922030812042,-0.01968888973938173
0.30398442313157387,0.008908766527782922
-0.4023463110954828,0.016671361363555133
-0.4003931666933609,0.01686997428811161
-0.39844003822283647,0.01690542255678376
-0.3964869112450722,0.01692558265387024
-0.3945337872192157,0.016915510548310548
-0.39258066510159056,0.01688589521537295
-0.018949435397403857,-0.0949169764583119
-0.018898945134229662,-0.09493447987924644
-0.021275163746014836,-0.0941326520048705
-0.020986098330925837,-0.09422587521715874
-0.016858078879788,-0.09566573739587919
-0.03664778548311206,-0.08862941829485949
-0.03264003986825114,-0.0902185093102381
-0.03459566234365933,-0.08944442684440852
-0.015092512140638429,-0.09630783902472839
-0.01302682158747281,-0.0970317980530586
0.042431579092573515,-0.08638665270042004
0.04426723733159934,-0.08570932518744384
0.040376451760348084,-0.08717358505185195
0.040269510031736754,-0.08721579190349626
0.020088110793460175,-0.09449656482545328
0.02095325323562953,-0.09421328842248251
0.021722611043047943,-0.0939642603005901
0.07355495661910116,-0.0750209715392123
0.0716008069914568,-0.07572903493527841
0.06968728437587952,-0.07642727623132008
0.05012654622260045,-0.08357650532097763
0.04821884015421957,-0.08428214928223052
0.046221761920336446,-0.08500229230154338
0.08333578274872838,-0.07150835202606202
0.08725949587154957,-0.07013458735479998
0.07951503749232022,-0.07286360705071249
0.1225299334063763,-0.0573652209677579
