"Plane Section: Position[X] (m)","Plane Section: Position[Y] (m)"
-3.5,2.3712869492209719E-4
-3.27,2.391108613991097E-4
-3.04,2.4797817295151096E-4
-2.8099999999999996,2.6376939618268883E-4
-2.58,2.872491169171937E-4
-2.35,3.215349594912245E-4
-2.12,3.706602394848243E-4
-1.89,4.4204733314891014E-4
-1.66,5.488390258382306E-4
-1.43,7.122105495127706E-4
-1.2,8.932927918133989E-4
-1.176,9.972422540538723E-4
-1.1520000000000001,0.001033077210720329
-1.128,0.00107405508915763
-1.104,0.0011175554992364088
-1.08,0.0011634708253603365
-1.056,0.0012163856253304202
-1.032,0.0012691889813980922
-1.008,0.0013284004717212408
-0.9840000000000001,0.0013907629244621382
-0.96,0.0014587306035657756
-0.936,0.001534473252232201
-0.9119999999999999,0.0016126436731390412
-0.8879999999999999,0.0017004548456374953
-0.8639999999999999,0.0017945245660418113
-0.8400000000000001,0.001899061472399145
-0.8160000000000001,0.002015192774738537
-0.792,0.002136188995406285
-0.768,0.002275302779632762
-0.744,0.00242854234121922
-0.72,0.0026000580431328963
-0.6960000000000001,0.0027857049071488465
-0.6719999999999999,0.0030021590543210784
-0.6480000000000001,0.0032427464620886186
-0.6240000000000001,0.0035184372321320602
-0.6000000000000001,0.00382678957141965
-0.576,0.004217680434360114
-0.552,0.0046193628391942194
-0.528,0.0051731051723841685
-0.504,0.0060061200796183555
-0.48000000000000004,0.007376345289580766
-0.456,0.00799265318959691
0.47999999999999976,0.0074108304002956605
0.45599999999999974,0.007958913271045254
0.5039999999999996,0.006040253630918071
0.5279999999999994,0.0051816048410827575
0.5519999999999993,0.00461595385727156
0.5759999999999993,0.004210663262755121
0.5999999999999994,0.003826565863309145
0.6239999999999993,0.003521181717624406
0.6479999999999992,0.0032398568049668815
0.6719999999999993,0.0030016841951335266
0.6959999999999994,0.0027839531898943854
0.7199999999999993,0.0025993576901947512
0.7439999999999993,0.0024271639634953126
0.7679999999999993,0.0022748420760457053
0.7919999999999991,0.0021372706706694537
0.8159999999999994,0.0020124474035754627
0.8399999999999994,0.0018987010639623105
0.8639999999999993,0.001794996020822318
0.8879999999999992,0.0016994927382016937
0.9119999999999995,0.0016123660577460272
0.9359999999999993,0.001533195164599588
0.9599999999999994,0.0014592154592996463
0.9839999999999991,0.0013903138264140164
1.007999999999999,0.001327487715368168
1.0319999999999994,0.00126894288000451
1.0559999999999994,0.0012143882543902075
1.0799999999999992,0.0011628934190837537
1.1039999999999992,0.0011163782202954736
1.1279999999999997,0.0010731604753297323
1.1519999999999995,0.0010363138970974845
1.1759999999999997,9.983110779443155E-4
1.1999999999999997,8.915356812810684E-4
1.4299999999999997,7.119464265632587E-4
1.6599999999999997,5.489991761022474E-4
1.89,4.418788486282426E-4
2.1199999999999997,3.705122916780362E-4
2.3499999999999996,3.2142268880085525E-4
2.58,2.8716793210728975E-4
2.8099999999999996,2.6366621775269355E-4
3.0399999999999996,2.4772496494972185E-4
3.2699999999999996,2.3890647463922502E-4
3.5,2.3709109364044895E-4
0.30481358361491573,0.031808156591194195
0.30460402900847916,0.03173224751434243
0.3041275920302776,0.03155397886334371
0.300404296140249,0.030183666891802977
0.3002724102646874,0.030135779920316047
0.29960386400782224,0.02989261012799574
0.3049633344182402,0.03185787306532221
0.3032051170188238,0.03120071448791009
0.3017370722102737,0.03066280888393233
0.29856376528418965,0.029515559522077864
0.29747629802526154,0.029120379655648176
0.3048572118573766,0.0318063480368367
0.2966303155975463,0.028811491731809715
0.2952435768848224,0.02830492984348103
0.29293732056185445,0.027464203863224977
0.29449430040696867,0.028032192171285934
0.30499876106970214,0.03184193080086763
0.2905983046713268,0.026612395512983486
0.2922287863225761,0.027206739199515488
0.2892636224485108,0.02612766286242734
0.2878209611572027,0.025601172414501987
0.30529222248846766,0.03192999566400932
0.30532641015056367,0.03194092898855494
0.30542392969681703,0.031987091936905444
0.28370613405829037,0.02410561544329292
0.28565113533033337,0.024813096860512193
0.2899014360370239,0.026360012955571163
0.3056636615215518,0.0320776207814105
0.28174531236312483,0.023390521549340137
0.27979234258802604,0.022679228617021277
0.306163562816571,0.03223471441303119
0.3366437994355092,0.04001307761937885
0.3359375,0.040063847497375835
0.27791688484309185,0.021996069486837928
0.30706677721020353,0.03250670412355634
0.3340586805669383,0.04001307761937885
0.330078125,0.03939399928294237
0.33203125,0.03973302761144281
0.328125,0.03901640724578992
0.337890625,0.039495902288820536
0.33856823440479866,0.03805995261937885
0.2759040253011947,0.021262858083287917
0.27393401381066423,0.020543717647670504
0.27213712370101056,0.019887425319564292
0.3089005593264804,0.03285794797100483
0.31761229547079733,0.03610682761937885
0.318359375,0.03637953563560209
0.326171875,0.03860157074088409
0.32421875,0.0381385829962666
0.3239517314189579,0.03805995261937885
0.3203125,0.03698043298845574
0.333984375,0.040010623251887485
0.337890625,0.0373682309482567
0.33697466946912247,0.03610682761937885
0.26802251127662935,0.01838473666262999
0.27002914342988793,0.019118168447539448
0.26417246276641704,0.016978127727626833
0.2661247990398386,0.01769117409981475
0.2758864653945451,0.021256447206986776
0.3120116090479026,0.03415370261937885
0.3125,0.03440426748874301
0.310546875,0.0336488094726163
0.31640625,0.03570186887341224
0.314453125,0.03505145379340448
0.322265625,0.03755813345464928
0.3359375,0.035263417206497255
0.26223102056508385,0.01626889298636679
0.3348056895999168,0.03415370261937885
0.2602678842013286,0.015551776770511283
0.25831556398817374,0.014838686273104848
0.2564438057275543,0.014154393147891412
0.333984375,0.03348947918056673
0.33256224290143277,0.03220057761937885
0.33203125,0.031712138213565534
0.3305499144674302,0.03024745261937884
0.2549919527356572,0.013624083598658064
0.330078125,0.029677574804266756
0.3289896378222606,0.02829432761937884
0.25441127084819287,0.013411551116979451
0.25245914078666737,0.01269793818228368
0.2506664013744176,0.012040938085869755
0.24855534567734922,0.01126943469820724
0.328125,0.026565429808879347
0.24655153589623968,0.010536209054239316
0.2407616792155074,0.008416254226133239
0.24269925395510827,0.009127775875621903
0.32801614726843054,0.026341202619378855
0.24465124540297634,0.009841769648197891
0.23879612071353062,0.007697453924938938
0.3276899380355387,0.024388077619378855
0.328125,0.02244843067601966
0.328128024727539,0.022434952619378855
0.48437499999999994,0.0061626428288147645
0.4921875,0.005753123772154543
0.23684355472463628,0.006985038690802902
0.2349755085903702,0.006299619757273485
0.32950751265424827,0.020481827619378855
0.4765625,0.005690885838390825
0.2341937085854639,0.006013038002047423
0.2292018177902611,0.004177693310042899
0.23099006599787825,0.004836228197161112
0.330078125,0.02009100092638509
0.33203125,0.018889670246643786
0.46875,0.005578711121921694
0.2270880116778454,0.003402941934002723
0.22508820704941795,0.002666684098702174
0.23294145492944554,0.00555187736960912
0.3326983765048485,0.018528702619378883
0.337890625,0.01717243977046557
0.33984375,0.016769262317798458
0.3359375,0.01761276772528938
0.4609375,0.005841269102443626
0.22123471157336572,0.0012536132049291912
0.22318708517960612,0.0019665570060439816
0.21929948247749198,5.440062634442872E-4
0.333984375,0.01813248205776974
0.3406495862460076,0.016575577619378883
0.453125,0.0061961689483290075
0.21733352865363337,-1.8206721079274275E-4
0.21637214935501892,-5.351347874553513E-4
0.34179687499999994,0.01636899108972338
0.34375,0.015848602589259207
0.34681219338976266,0.01462245261937891
0.345703125,0.015152000181478548
0.353515625,0.012998628343374698
0.35546875,0.012888421556194837
0.3515625,0.013187038056357497
0.4296875,0.006856019320313636
0.42578125,0.006921216760986226
0.421875,0.007263400170674544
0.4338834376852035,0.006809952619378935
0.43359375,0.00682804339325796
0.4453125,0.006330798192227269
0.44140625,0.00637443161950938
0.4375,0.006589772429142579
0.4481250001117587,0.0062198009824054245
0.21538320033929206,-9.006304050153016E-4
0.349609375,0.013593151113555949
0.34765625,0.014319415536089064
0.357421875,0.012814894194833339
0.359375,0.01270905138908964
0.3598081564935057,0.01266932761937892
0.41796875,0.007618613427263986
0.4140625,0.007885580646248395
0.21352217605806056,-0.001596225826856848
0.361328125,0.012536021487262312
0.36328125,0.012331590833381156
0.373046875,0.011002058918897027
0.375,0.010855768484716298
0.37109375,0.01137195708423694
0.369140625,0.011720280560801011
0.3671875,0.011974034423080263
0.37602537037756223,0.010716202619378917
0.40625,0.00821908214311243
0.40234375,0.00839290879113048
0.3984375,0.00873893491282516
0.41015625,0.00810726570160273
0.20563824866324315,-0.004511826712727923
0.20409006333655227,-0.005097932064987373
0.21148875208876788,-0.0023548141716513483
0.20953726144252394,-0.003070183885331891
0.2077513901579492,-0.0037243310172250348
0.365234375,0.012186187584670749
0.37890625,0.01036443791447136
0.380859375,0.010331449052274977
0.376953125,0.01058698389061476
0.3828125,0.010342855333198508
0.39453125,0.009108841774547086
0.390625,0.009648640659036756
0.2036486679508896,-0.005268191074040569
0.38671875,0.010230913955322322
0.3839062498882413,0.010293622146932349
0.1998017312265531,-0.006707265440940449
0.19787591004251032,-0.0074343400969630775
0.20174621464704806,-0.005972643533431019
0.19590135547673526,-0.00814516353769662
0.19394666068887464,-0.008851729944951876
0.19209522914011556,-0.0095645211120906
0.19106438752123572,-0.009977615671133366
0.18479413452796628,-0.012259801122001994
0.1842036523527822,-0.012468265535122048
0.18812654599230866,-0.011092234829658768
0.1863365359411175,-0.011723973476212537
0.183881620827475,-0.012591928947340923
0.19007557494474245,-0.010370101668063451
0.18222223171091054,-0.013239054223305166
0.1803386044701698,-0.014003226145826986
0.17839581940302196,-0.014742514240640846
0.17646241488093817,-0.015440351976079857
0.17448927771123504,-0.016163471551673816
0.1725508320447711,-0.01691468205145374
0.17225890600638408,-0.01703033917583706
0.1649518235381779,-0.019806305099662917
0.16672181378368123,-0.0191307245945547
0.1707061386773695,-0.017636780449489943
0.16866621523785363,-0.018395877486432812
0.14331420074821252,-0.027193640241359056
0.14508413694036973,-0.02652920425859075
0.16282981348110137,-0.02059163404265092
0.16083692689959486,-0.02132291294888955
0.1411835469350602,-0.027966513693242566
0.13918442487286026,-0.028672641025076523
0.14704852690899778,-0.025849275140617738
0.1481020763209348,-0.025475892815154763
0.1589392207725248,-0.02205641082334856
0.15702788031621656,-0.02288209227331425
0.15692622849123114,-0.022923109391337015
0.13532044619573988,-0.030088915400359288
0.1372712619331276,-0.029371691389902442
0.13339254346062027,-0.03078499839136701
0.14745734127408425,-0.025849282509366186
0.14517909925481354,-0.026790111063881593
0.14341302802976513,-0.02746516595612804
0.15511019456753547,-0.023614692966646502
0.13141174221529026,-0.03150393187232993
0.1294580441964064,-0.03221323687974317
0.1414886687335925,-0.028229789644441637
0.14710231589159498,-0.025997059150427018
0.15313528052123648,-0.0243413546296368
0.12760270227373235,-0.03288752352000105
0.14130702539017173,-0.02830576794830248
0.13935339182519535,-0.029136873894627935
0.15118645620908966,-0.025064050035779585
0.1493371282495521,-0.025764161932614268
0.14357481852363382,-0.02790968166879733
0.1453499633224027,-0.027259556214568863
0.11770721476133977,-0.03650396702641865
0.11969761214321595,-0.03578190120233779
0.1255497205476678,-0.03362929830446436
0.12349535957040833,-0.03437339638037949
0.12173693292696072,-0.035030371665953144
0.13745974291188257,-0.02988953860448522
0.13552284812700788,-0.03064501011625933
0.1344891192700288,-0.031089549290834385
0.14144174627230438,-0.028675910516636788
0.13943804619440017,-0.029369459854147732
0.1472981373931328,-0.0265350742848804
0.1138462741754058,-0.0379366208574117
0.11192009160695568,-0.038628959829119146
0.10795508065200432,-0.03998183827737968
0.10901551122937844,-0.039609755516076636
0.11579369669016823,-0.03721007404474655
0.13555659106111348,-0.03073771806246085
0.13751516309004488,-0.03004180428711587
0.10727874338629048,-0.04024188731479138
0.10992090548007846,-0.0393058514031937
0.10611821090062452,-0.04069752404570959
0.09764909426263056,-0.04383927651434427
0.09822008139149901,-0.0436203786210883
0.10408059165408179,-0.041490859637884306
0.10203111358322159,-0.04224058175356135
0.10026091415649094,-0.042865934806233665
0.0962454396087614,-0.04437768730593987
0.09432631632536771,-0.04507643942134998
0.09236508870535319,-0.04576505702041998
0.09046022862840825,-0.0465074848919718
0.08849230032036753,-0.047278750776400646
0.08653300399732348,-0.04797267457009733
0.08466719009734473,-0.048599431654663176
0.08261090595412164,-0.04935089115841921
0.08059154556534008,-0.050175561409075704
0.08041309189381945,-0.05025139366250288
0.07682483564048811,-0.051684932213142964
0.07886366808401442,-0.05091792505283675
0.07482239120351944,-0.052395967039917654
0.06980001992834838,-0.05432232394431385
0.07096744135603963,-0.05382301227560379
0.07290842885967623,-0.05307878541580953
0.0690916233364641,-0.05463671368171746
0.06714587773823982,-0.055477444917704816
0.06521490052563195,-0.05624917482507769
0.06336686012726461,-0.05691530443864429
0.0612927221090718,-0.0576271705894205
0.059240683277102524,-0.05835425001489855
0.037579913974866735,-0.0656814679426009
0.03948537064378939,-0.06500914062568859
0.057482029710437296,-0.05901279801506555
0.05542837891548474,-0.059746158681616854
0.05343680694993516,-0.06044082154414793
0.033768536095537705,-0.06708373782754747
0.035815438579551016,-0.06632477066788123
0.0421516767065713,-0.06417740991156203
0.041729032288343695,-0.06430385299196405
0.039630802817975284,-0.06495904467795999
0.04954852647707727,-0.061822535475402236
0.05151488739964656,-0.06114802150868366
0.047608359976433146,-0.062450896633228975
0.044285642196832176,-0.0636087979844102
0.043636137884917436,-0.06380951992463807
0.03322166135930185,-0.06728894436133892
0.04560818932092203,-0.06315064051452825
0.0317938428773663,-0.06781668881272997
0.010287665002472262,-0.07542553317795729
0.01151805071365335,-0.07499316955714606
0.012241979342524937,-0.07474911256915573
0.013102363036712798,-0.07445763083230612
0.008389233397609584,-0.07610456339484942
0.00666589257557729,-0.07672649717357714
0.027923490738327165,-0.06925574628753407
0.02602995555464202,-0.07000365555306523
0.029869121126903535,-0.06852427564881622
0.008435243485197896,-0.07608805138810025
0.014292906110780589,-0.07408596429746966
0.004252016076117281,-0.07759211899701715
0.003622165353970244,-0.07781883830541328
0.005116698755697406,-0.07728155819610523
0.002386287697364658,-0.07826588772226696
0.0012454023979157857,-0.07868464202426789
0.024925388033442488,-0.07044726623545565
0.014312880428434866,-0.07407965746923437
-0.0023862424823874375,-0.07826524495036115
-0.0012453441872989429,-0.07868295975086217
4.909022056062431E-4,-0.07896105249359726
-0.0036219478504270815,-0.0778188640982311
0.024061132028412063,-0.07079809440554508
0.01835914337684052,-0.07269845851536683
0.018143105641096294,-0.07276912433953278
0.02023601429398695,-0.07209013674013862
0.021187179116469838,-0.0718078630127246
0.0160904180239446,-0.07347703800775884
0.022113253117283165,-0.0715233811020137
-3.254913759399454E-4,-0.07902125711206526
-7.158209799191832E-21,-0.07914148444606853
-0.004778337556271129,-0.07740055364522296
-0.007980596935782285,-0.07625329490476963
-0.006664765115733806,-0.0767235741078197
-0.005115680538840242,-0.0772789325555009
-0.012235285188249428,-0.07473066814633678
-0.010289347884572036,-0.07543031079573151
-0.008437176235243978,-0.07609380987120314
-0.01238352811946905,-0.07467816154376702
-0.013954583963515945,-0.07414744778157516
-0.014296912925667874,-0.07403575491455108
-0.015965870912637275,-0.07347705490336845
-0.020657386971162667,-0.07186196625533653
-0.02020448335820322,-0.07200350554011029
-0.018121599805967552,-0.07271003495817424
-0.016076765367924656,-0.07343952042694445
-0.02208609380388218,-0.07144876144471024
-0.03376975162428282,-0.06708707746520777
-0.03365947193068108,-0.0671295943451098
-0.0279418560279477,-0.0693062045042614
-0.02704961794704272,-0.06967410977616964
-0.0227590261874184,-0.07123575746501094
-0.03581201295291228,-0.06631535883638082
-0.038910122441379744,-0.06521851384868084
-0.037582491961235504,-0.0656885509016831
-0.0318004244008538,-0.06783477139925
-0.029877565156348616,-0.06854747542821502
-0.026059148579672422,-0.07008386272726976
-0.024067082721886176,-0.0708144438024425
-0.04211009616135406,-0.06419254399234567
-0.04172778683176318,-0.0643004311282547
-0.03963268222769718,-0.0649642083135479
-0.04363635149813294,-0.06384512047212262
-0.0436481769714395,-0.06384259704182389
-0.04957663289718163,-0.06189975722721547
-0.04763464152340747,-0.06252310458750361
-0.07092423388066307,-0.05370430071690589
-0.07091115138780676,-0.053709817174459815
-0.045618241881995494,-0.06317825969809626
-0.05543251586287532,-0.05975752485075096
-0.05346424241958451,-0.06051619987480246
-0.05154434424944263,-0.06122895353544858
-0.06580070230024958,-0.055777956518317906
-0.06707420790999896,-0.05528053369000786
-0.08649068680314631,-0.04785640903880409
-0.08514688064604081,-0.04838971013322055
-0.07477880184192733,-0.052276206257503254
-0.07678038826958228,-0.05156281406959783
-0.07286288866055161,-0.052953664751517526
-0.06903871714358992,-0.05449135511665135
-0.08845346028128784,-0.04717203864987965
-0.057462974404743836,-0.05896044399482666
-0.06513832928335418,-0.05603879707347326
-0.06329315039115183,-0.05671278861033218
-0.0846640280800515,-0.048590744083861194
-0.08263211735602918,-0.04940916900410831
-0.08059089501687515,-0.05017377404192203
-0.07882790657922106,-0.05081967112944955
-0.08894198236161974,-0.04700840607273721
-0.06124116620855738,-0.057485521921989594
-0.05921123444200985,-0.058273340008349446
-0.09821656147820079,-0.04361070773912921
-0.0962353919913736,-0.04435008170503596
-0.09594296164397971,-0.044460258003243824
-0.0943280978587577,-0.04508133414393563
-0.09238468230257592,-0.045818889984427666
-0.09046137869815317,-0.04651064468251361
-0.10408125981531202,-0.041492695395711245
-0.10441650368676657,-0.04137614092086617
-0.10203136602991092,-0.04224127534511499
-0.10026647381380857,-0.04288120983862673
-0.10802230336503528,-0.040166531156893184
-0.10615717938464186,-0.040804589071783734
-0.10946749220333526,-0.039676456775384374
-0.1130548149669566,-0.03857886606097505
-0.11201057505996395,-0.03887756106419164
-0.10999432295113024,-0.03950756423987892
-0.1283013275319427,-0.03282150131870003
-0.12951433187276679,-0.032367885993999104
-0.13534881220493689,-0.030166850367317345
-0.13342769891439135,-0.03088158720331521
-0.11397130680074312,-0.038280145159920065
-0.1314591782272609,-0.03163426123942124
-0.12766456085742023,-0.033057478575797036
-0.14509196671943933,-0.026550716399013494
-0.14332075891057627,-0.027211658643721482
-0.1427433199866402,-0.02742632061352345
-0.14119910795847596,-0.028009267252170046
-0.13921241837820975,-0.028749552546161565
-0.13730232936014647,-0.02945704844106086
-0.15095300767079922,-0.02442265547118922
-0.1529044678482399,-0.023707202045162672
-0.14909750180981787,-0.02510579372391542
-0.15680916112960974,-0.02228116626842868
-0.15487998861921873,-0.022982207344470484
-0.12562816638903548,-0.033844826474554356
-0.1236012808245909,-0.03466441262406561
-0.11983974549215694,-0.03617240935512121
-0.117866950531098,-0.03694283743119334
-0.11595423814413802,-0.03765115804862039
-0.14704825793377407,-0.02584853613729054
-0.16267167167080432,-0.02015714300534656
-0.1606749227367436,-0.02087781018553629
-0.1587631357627564,-0.021572621252429328
