"Plane Section: Position[X] (m)","Plane Section: Position[Y] (m)"
3.5,0.002187915864066045
3.2700000000000005,0.002211473051643917
3.04,0.00229546115702805
2.8100000000000005,0.0024183471635422188
2.58,0.0026134604313932663
2.3499999999999996,0.0029143340454555883
2.1200000000000006,0.0033079508924190506
1.8900000000000003,0.0038947854708894867
1.8657459469753108,0.003999999999999837
1.6600000000000006,0.004869360281151966
1.4300000000000002,0.006423488904918052
1.2000000000000006,0.007981072391828218
1.1760000000000004,0.008882417428818531
1.1520000000000006,0.0096375211785509
1.1280000000000001,0.010329615350323808
1.104,0.010785769528228002
1.0800000000000005,0.011342402401375622
1.0560615046508244,0.011999999999999754
1.056000000000001,0.012001765796453658
1.0320000000000005,0.012581817306321389
1.0080000000000005,0.013061433684129457
0.9840000000000005,0.013471971994403104
0.9600000000000004,0.014002612220845834
0.9360000000000004,0.014624102186898299
0.9120000000000005,0.015162663468489436
0.8880000000000003,0.0162375043084177
0.8640000000000005,0.018536741489177534
0.8518522322862481,0.019999999999999463
0.8400000000000004,0.02145948758130868
0.8160000000000003,0.023593932173110305
0.7920000000000007,0.025416598684370934
0.7680000000000008,0.026585864892197428
0.744000000000001,0.027747324719315507
0.7415024337251755,0.027999999999999192
0.720000000000001,0.030058420679085006
0.6960000000000007,0.032548613903953055
0.6720000000000008,0.035445328418149
0.6688638874460726,0.03599999999999834
0.6480000000000008,0.03940782672570935
0.624000000000001,0.04391525128942213
0.6236547682029034,0.04399999999999778
0.6000000000000005,0.04918629313981808
0.5896806501476495,0.051999999999996924
0.5760000000000003,0.0557158204565173
0.5623995670901566,0.059999999999996265
0.5520000000000003,0.06360849745719592
0.5403708431744771,0.06799999999999566
0.5280000000000005,0.07414136964253291
0.5240790611816254,0.0759999999999949
0.5162648681751678,0.0839999999999944
0.510554704121312,0.09199999999999349
0.5039999999999997,0.09857423637434783
0.5024835094321669,0.09999999999999284
0.49750357523481065,0.12166666666665968
0.458021953117824,0.121666666666659
0.4559999999999993,0.11903178106535812
0.49257565584296586,0.14333333333332604
0.5073083711975107,0.16499999999999315
0.5039999999999976,0.15700738489485028
0.4740952608851579,0.14333333333332587
0.47999999999999776,0.15534905499067558
0.4944481885719906,0.164999999999993
0.5102182993261494,0.18666666666665985
0.4961380532022104,0.18666666666665965
0.5039999999999967,0.19168027331329554
-0.6232276723669259,0.04399999999999647
-0.6239999999999999,0.043811479071562395
-0.5893006507227392,0.05199999999999574
-0.5999999999999999,0.049086490033642904
-0.5620556483294326,0.05999999999999488
-0.5759999999999998,0.055623448026992
-0.53993412587629,0.0679999999999941
-0.5519999999999998,0.06345728863783735
-0.5246089007978073,0.0759999999999933
-0.528,0.07428230191555761
-0.6685844910310452,0.03599999999999724
-0.6719999999999999,0.035397586979216314
-0.6479999999999999,0.03935979843993673
-0.5163806484731742,0.08399999999999255
-0.696,0.03248128707414394
-0.509943572078936,0.0919999999999919
-0.5022849521590919,0.0999999999999911
-0.5040000000000002,0.09828578854590067
-0.4592083534294116,0.12166666666665747
-0.45600000000000224,0.11853861368345728
-0.7378814740334515,0.027999999999997943
-0.744,0.027319382344245517
-0.72,0.029925259970448242
-0.4960810545532034,0.12166666666665776
-0.4800000000000049,0.14200820687169818
-0.768,0.025787634895506666
-0.7919999999999999,0.025238383569535228
-0.8159999999999998,0.023489986435166685
-0.5037052668238504,0.1866666666666586
-0.5040000000000101,0.1848573526728552
-0.8556459571816203,0.019999999999998807
-0.8640000000000001,0.019234688270452893
-0.8400000000000001,0.021382026330705753
-0.5042173082795427,0.18666666666665863
-0.5040000000000102,0.1869476437772284
-0.8880000000000002,0.01683179179646302
-0.9120000000000001,0.015432961459034288
-0.9360000000000002,0.014567462012551309
-0.9600000000000002,0.013925943114231627
-0.9840000000000002,0.013387132549039012
-1.008,0.012753340306991224
-1.0560000000000003,0.011607428654774404
-1.0375063161411169,0.011999999999999629
-1.032,0.01211917167059121
-1.0800000000000005,0.011197556723193303
-1.1040000000000003,0.01070981229776698
-1.1280000000000001,0.010268004326309492
-1.1520000000000001,0.009804230147039503
-1.1760000000000002,0.00915319413368982
-1.2000000000000002,0.00814055116877924
-1.4300000000000002,0.006467641916310589
-1.871042151505276,0.00400000000000012
-1.8900000000000001,0.0039187795733528884
-1.6600000000000001,0.004879031927803125
-2.12,0.0033118787492035576
-2.35,0.0029003526042087786
-2.58,0.0026249496201552593
-2.8099999999999996,0.0024316828867150214
-3.04,0.002292063063545185
-3.27,0.00221284832372511
-3.5,0.0021986803141379177
-0.3016932060254232,-0.08568069700856125
-0.30002633373070037,-0.08628742839723
-0.3516071483391118,-0.04012793110485123
-0.34895779570826135,-0.04311147094127117
-0.3446395131139316,-0.047018514242465184
-0.3477016825247624,-0.04439730716178719
-0.35551251520522975,-0.03531989212814895
-0.3524452566226297,-0.039204580255634496
-0.3555314742533189,-0.03529776327529351
-0.2944461407317782,-0.08832021928168396
-0.29622813339501597,-0.08767126657868868
-0.2923395672108794,-0.08908739433947671
-0.2903334729043637,-0.08981798365668721
-0.288434010493292,-0.09050970825401941
-0.286481012890884,-0.09122092436826244
-0.28453989741365837,-0.09192782095949062
-0.282575015965564,-0.09264337720607405
-0.28062202026893435,-0.09335461172746876
-0.30339419209427226,-0.08505971555689303
-0.2981273620035281,-0.08697950778075386
-0.34379607660636397,-0.04790397278747411
-0.34200976182403786,-0.05092524737344179
-0.3585991394037362,-0.031390949702902814
-0.2787505420972567,-0.09403615711568301
-0.30346984177295117,-0.08503225948042548
-0.3418435396313041,-0.05110529290314281
-0.3405956367432673,-0.0528786321702894
-0.33871309148893625,-0.05483210301231993
-0.33989087189909595,-0.053594786027616394
-0.3594178778684586,-0.030488973058083638
-0.26109210856627846,-0.1004670812313803
-0.25913911362891784,-0.10117831783768724
-0.25727056316723756,-0.10185881744349684
-0.2767160254958352,-0.09477707148957934
-0.2747630330011949,-0.09548831480333408
-0.27297033895890394,-0.09614125824615459
-0.27085706196413384,-0.09691083974240552
-0.2688531350722452,-0.09764065022551424
-0.26499809933222773,-0.09904461046601025
-0.2630596723215779,-0.09975054783059317
-0.303591007834355,-0.08499081815546451
-0.3379381262442458,-0.05566007715689775
-0.33689348006572706,-0.056785562293889855
-0.3350586269805065,-0.058739024375234476
-0.335985385258266,-0.05775078511914883
-0.3619877202007124,-0.027484077180776473
-0.25523313613106663,-0.1026008250360321
-0.2532801419684844,-0.10331206376980745
-0.25149093333169603,-0.10396373511551003
-0.2669510874185553,-0.0983333550474034
-0.3036282931411345,-0.08498141283762342
-0.33321656341025063,-0.06069248778108907
-0.3340326419869976,-0.05982905223918293
-0.36332330554208137,-0.02601196324625701
-0.36548999874608834,-0.023577183773247364
-0.23579067638491633,-0.10968168754525015
-0.23765629021036816,-0.10900225246630493
-0.24937417293510314,-0.10473459421070795
-0.24737282077604836,-0.10546350235698451
-0.23960927650150507,-0.10829099211827883
-0.30372779487988016,-0.08495079947024844
-0.3320798976443324,-0.06190148677711259
-0.33137147837956676,-0.06264595174196799
-0.3672287587392573,-0.021673900705689482
-0.36907133311088414,-0.019670275843778874
-0.23179736134409762,-0.1111361159071983
-0.233750329962381,-0.1104248070311436
-0.23001168079618461,-0.11178651675111312
-0.22789138871034165,-0.11255863646188713
-0.22589260637487366,-0.11328661712263845
-0.24546822566219884,-0.10615718440398517
-0.24351524578118877,-0.10686846235363393
-0.24157951534621336,-0.10757344108996883
-0.3038569838203671,-0.08491143159152904
-0.33012716040604684,-0.06401259676942779
-0.3295792693927478,-0.06459940598992242
-0.3278387314664929,-0.06655285074629883
-0.3281744372594553,-0.0662004203308717
-0.3711342129470646,-0.01734133991150013
-0.3725557031808236,-0.015763385725901552
-0.22398546536105068,-0.11398129234717608
-0.22203248824860686,-0.11469257789904479
-0.2200994381925383,-0.11539653232809285
-0.21782292723401625,-0.11622567586789281
-0.21812651495909025,-0.11611509665307962
-0.30398843829961025,-0.08487448155101582
-0.32622167619394415,-0.06818181756635079
-0.3258512958215505,-0.068506340855886
-0.3236780124888069,-0.07045986510426624
-0.3242688679469266,-0.06990636405432041
-0.37503967635218083,-0.013058848255152841
-0.21431106963330607,-0.11750528184878212
-0.21617366208697839,-0.11682672335745803
-0.3041724425155453,-0.08482201608466722
-0.3214903656846043,-0.07241339199110236
-0.32231606405053703,-0.07165459491041606
-0.37620849291742176,-0.011856464670623484
-0.21031505854445687,-0.11896148010739543
-0.20853318651621283,-0.11961125933230816
-0.20640946509422087,-0.12038504186504884
-0.20441348439537008,-0.12111271965291392
-0.21226784428629247,-0.11824966906947333
-0.3044176966483702,-0.0847499197743854
-0.3203632632599867,-0.07341973355935204
-0.3193904491669841,-0.07436690276256488
-0.37893620854985516,-0.007949713544349375
-0.20156872828175976,-0.122150582877534
-0.20250418903494402,-0.1218094751490251
-0.3049095428492201,-0.08458763454922029
-0.30555506760929324,-0.08435992401162931
-0.30552258739764915,-0.08436943818738489
-0.3184104865631916,-0.07531603590542002
-0.3173643550502331,-0.07632039997341919
-0.31527484069484013,-0.07827390883408221
-0.3164577048555004,-0.07718505949353219
-0.38285008131262466,-0.001652974050226754
-0.1888357542471057,-0.1267950779183824
-0.19078851319209542,-0.12608319329878703
-0.18784798210689888,-0.12715560186176195
-0.20055162729937698,-0.12252190128750044
-0.1986218034654758,-0.1232263084702756
-0.19283454804692532,-0.12533730144445548
-0.19469401026351307,-0.12465936689376345
-0.30565159748694803,-0.08427871089922409
-0.3145049101426668,-0.078983284597646
-0.3126015859198561,-0.08022752492336754
-0.38418361349156027,-1.362495046320505E-4
-0.1849308607503929,-0.12822056168388896
-0.18293740663067115,-0.1289471691280584
-0.18705799380141322,-0.12744494064722525
-0.1966467422312848,-0.12394740819722976
-0.3057760415879365,-0.08420274706751532
-0.3066932699334227,-0.08366460501780351
-0.30622310219255705,-0.08413494666766294
-0.31255202010075767,-0.08026254904983743
-0.39001556408360194,0.007677321911621609
-0.1771454513339174,-0.13105958413661006
-0.17907264544630466,-0.1303563845007649
-0.1732141577986375,-0.13249145948728808
-0.17516720472259237,-0.13178036563139883
-0.17135739975691788,-0.1331675522599872
-0.18102531192373011,-0.12964424597378896
-0.310599113856732,-0.08145361102029819
-0.30968853684755804,-0.08218118506102094
-0.3086462722356319,-0.0829964728383537
-0.39066069520163527,0.008615516799675435
-0.3952265929741785,0.015490779269333328
-0.39847126736841465,0.0191111386809917
-0.40221771636187853,0.023304563616708615
-0.40628171929682844,0.0302613245519866
-0.41220924562723926,0.03893139924736386
-0.40679396032549686,0.03111790436931213
-0.1693081409296806,-0.1339138585761841
-0.1672536525798554,-0.13466236957285171
-0.16145818804544645,-0.13677298173968366
-0.16344935693830273,-0.1360481198302182
-0.41409214561241675,0.041550943738049816
-0.4170367138208852,0.046744786147931705
-0.4640415829956006,0.13269092203056754
-0.46876118508286785,0.14205298583826048
-0.15173174191169386,-0.14031651316015667
-0.14987874468122653,-0.14099361597170174
-0.1595432170219483,-0.13747018104230624
-0.15759018550982226,-0.13818131721767354
-0.15566536716296864,-0.13888258898983327
-0.16549015272574097,-0.13530496783941387
-0.41986226166733737,0.054557805311127694
-0.43347106704710714,0.08581030567116682
-0.43752046559983404,0.09152803882852063
-0.44438169869306543,0.10143731013386745
-0.45314159529019477,0.11259899852022384
-0.4570174428935245,0.11706463148647639
-0.4757555656651772,0.14831807406266545
-0.15368449055378913,-0.13960460024978885
-0.14883816517271267,-0.14137446166674075
-0.42190127799371424,0.059884593713307885
-0.427721409540572,0.07018424923972473
-0.14577806147973843,-0.14249838052125144
-0.1478284787544693,-0.14174647368759322
-0.14197359725185482,-0.14389145081592522
-0.14401536813695212,-0.14314391095844098
-0.14138888779524283,-0.1441058246008306
-0.1399879631728871,-0.14462347751736573
-0.13807333080473244,-0.14532964003297544
-0.13659259809501592,-0.1458802760334152
-0.13027579417741492,-0.14821424593978716
-0.1284251174808324,-0.14888835253125066
-0.1263675471262325,-0.14963052115395567
-0.13612754935106447,-0.14606068420036156
-0.13420960873755328,-0.14677236648558273
-0.13222730784550868,-0.14749894190465776
-0.0990069007323399,-0.15953643774209386
-0.09702431718644387,-0.16026073495240173
-0.10877836430799578,-0.15599807260111942
-0.10692760743402939,-0.1566625375835731
-0.10281778824155799,-0.1581454157651861
-0.10459455574787646,-0.15750552097559783
-0.10105302791265154,-0.15878673178389757
-0.11463972100412873,-0.1538708757571392
-0.11659387165892658,-0.15316281264436468
-0.11272018314079366,-0.15456967276297845
-0.11073311381682698,-0.15529165388630195
-0.12431622252710306,-0.15037214581468072
-0.11671450016645053,-0.15311944744731595
-0.12050421495724539,-0.15175229353158867
-0.11850416260654507,-0.15247467277763832
-0.09510197632376259,-0.16096183662647603
-0.09314893943010887,-0.16167295802466194
-0.10486758732249664,-0.157407400848904
-0.12255079160258671,-0.15101088535119303
-0.09123218984312849,-0.16237088704851987
-0.08729005245390191,-0.1638069364918313
-0.08924306231970339,-0.1630957408776651
-0.08544452612798717,-0.16447628741189613
-0.0833839719080149,-0.1652291607297595
-0.08263269615606818,-0.16550355311752413
-0.08134025812627294,-0.16597607855388072
-0.07565710931600562,-0.16807165722320325
-0.07752783275130981,-0.16737068445592654
-0.07957654533014866,-0.1666210150964559
-0.0755540562143401,-0.1681110916206708
-0.07363915878652286,-0.16884070556058295
-0.07252468463697298,-0.1692540386241162
0.010947001452722753,-0.19152174279569475
0.011578312226516568,-0.19129250501772108
-0.004745675745056176,-0.19382378175671455
-0.003415512811292195,-0.194307298198689
-0.007218481946418609,-0.19292546544541467
-0.005340688000181039,-0.19360765336895072
-0.0016616688591886057,-0.19494618012853412
-0.0011899035532884359,-0.19511871673990136
-0.009695667580273792,-0.19202658314253349
-0.009161168561557128,-0.1922203098461873
0.022687964033706536,-0.1872588705802086
0.022965748499558476,-0.18715840611504075
0.020851397561731495,-0.18792403874488722
0.0167424273261335,-0.18941622133682634
0.018780014208107508,-0.1886759564333143
0.2980339507916987,-0.08711077362313846
0.29650904345420576,-0.08766601982396952
0.2961309867233189,-0.08780413784632629
0.294349799176979,-0.08845752275930713
-0.07169018730634347,-0.1695629902093148
-0.07026258136884445,-0.17014027806728094
-0.06403577028864352,-0.17249407084701213
-0.06424752034714724,-0.1724244784798319
-0.022834336175637293,-0.187258843467813
-0.020997152031267764,-0.18792231887760202
-0.024713673547982682,-0.18657790491180148
-0.030893896567581937,-0.18434569990218763
-0.030653046725564424,-0.18443237920016184
-0.034564996738341056,-0.18302627197712423
-0.032586968600734276,-0.18373881591448424
0.012919825189935502,-0.1908057874187784
0.014976807717225173,-0.1900581402800606
0.009016723967544323,-0.19222238310637219
0.00707547178208496,-0.19292716731681853
0.005197114706637447,-0.19360992868756505
-7.318834861817905E-5,-0.1955287773211249
-0.012966376351004852,-0.19084368337511187
-0.01109288420973702,-0.19152167426286887
0.02664265020283525,-0.18583156117547467
0.027191718847678556,-0.18563348807081054
0.02464317960350689,-0.18655373819148252
0.2999347765537731,-0.08641681938271209
0.2922448269151709,-0.089229497535849
0.2902394742414012,-0.08996200360363438
0.28714660140150067,-0.09109021801827547
0.28834019323408294,-0.09065414907959884
-0.06981255014785513,-0.17035976836168626
-0.06963361126432391,-0.17046298118062927
-0.06196497215594919,-0.17322834926173739
-0.06590926335488802,-0.1719110479538981
-0.0189255644234693,-0.1886736773246742
-0.01688882960336499,-0.18941628193141813
-0.028697818732817855,-0.1851374840422608
-0.026787870778619747,-0.18582835978276935
-0.02478857709459583,-0.18655102821209787
-0.03662039089715727,-0.18228082709737214
-0.03826174162726102,-0.18169023772105125
-0.040433884924197236,-0.18091975590948833
-0.04215223047511284,-0.18031502658827464
-0.04250863171377343,-0.18018672677496564
-0.04435265982382775,-0.1795323891964654
-0.03838806411366859,-0.18164524961227937
0.003271454321125235,-0.194310129037718
0.0015168831968566535,-0.19495176076456602
-0.015123942593052697,-0.19006024888670178
-0.013066728573809267,-0.19080748330905173
0.028553862541296327,-0.18514416561944672
0.085317548742849,-0.16452963739658258
0.08716240519261398,-0.16385844734368776
0.2084503950339414,-0.1197860134489323
0.2102315774198383,-0.11913433712081144
0.21218549000498907,-0.11842562276416517
0.21297506616244574,-0.1181403784701619
0.30161391472226995,-0.08580498277088228
0.28638862588892094,-0.09136928208270992
0.28548481348643917,-0.09170764137117432
0.2855838542251809,-0.09168642961617363
-0.05993114130707612,-0.17399458970282908
-0.0463096288205899,-0.1788320649908586
-0.06868640288205495,-0.17094840269383918
-0.06678439897260785,-0.1716410711966223
0.03244151151632907,-0.18374138849797728
0.03316719218207635,-0.18347833209252135
0.030509049734929846,-0.18443895522327097
0.10269568251861892,-0.1582121505896692
0.10474274089512574,-0.15746660947476393
0.09110454567397577,-0.1624224051599288
0.09302151297497153,-0.1617250743503803
0.08911550756800823,-0.1631475056812005
0.08325597502600868,-0.165279710989679
0.08121181251965648,-0.1660253983452586
0.1068015432755806,-0.15671840357917385
0.10739355124942798,-0.15650533004864803
0.1183824862294917,-0.15254262690740733
0.1194879581151275,-0.15214745656102913
0.17706108331913759,-0.13123002865066974
0.17899101696836517,-0.1305343583585689
0.22782639099788446,-0.11278229963289826
0.22860378861295744,-0.11251766190433879
0.225815923033159,-0.1134781564210018
0.21610242444500283,-0.11703323587452984
0.2142324167975769,-0.11769141027558198
0.20841192274814518,-0.11980027765488938
0.20634045513292615,-0.12059768286944383
0.20434560695221826,-0.12132847521660305
0.20243243440759584,-0.12201457399246107
0.20047562304021788,-0.12271531945635651
0.19854496760529933,-0.12341744255624945
0.349213204425252,-0.04323971958376149
0.3515177753902936,-0.040607710786361634
0.34531104135586227,-0.047145252852312414
0.3476107363846823,-0.04490260874991257
0.3032903146079457,-0.0851821397701836
0.2883560514617677,-0.09069774336608882
0.28640079032190624,-0.09140272264375662
0.2961729000361797,-0.08791617290121051
0.2943889188539391,-0.08856441654948827
-0.05985882123667388,-0.17402274735137924
-0.0504123706091448,-0.17746293944577413
-0.05025379237053806,-0.1775144131706466
-0.04819238183967006,-0.17817776526070225
-0.048315595387706294,-0.17813632323747283
-0.06790597380685726,-0.17131985011994671
0.04029421833345469,-0.18093828419036798
0.042183583780244935,-0.1802678674891346
0.036477548795829706,-0.18229059855235946
0.03794864641037786,-0.1817667628943187
0.03824747182019728,-0.18166121377816585
0.03441976768183552,-0.18302947889299587
0.10097077807032297,-0.15884169228750725
0.09888347334650491,-0.1595995432628637
0.10083316828276623,-0.15889174952950835
0.09689937805320614,-0.1603196873287962
0.09497572728640288,-0.16101718945390542
0.07944796258275502,-0.16666996090840636
0.0790964605759634,-0.1667987426097654
0.0754256768115252,-0.16816062270413512
0.07740072542466542,-0.16742369030945756
0.1145156311156929,-0.15393218458618058
0.11647128910702823,-0.1532282684356851
0.1125947107687382,-0.1546271812213398
0.1086515545606806,-0.1560518981828191
0.12038552941434763,-0.1518284752447955
