"Plane Section: Position[X] (m)","Plane Section: Position[Y] (m)"
-3.5,1.2000297955605632E-6
-3.27,1.2267506767345113E-6
-3.04,1.29272805882664E-6
-2.8099999999999996,1.3695765980813018E-6
-2.58,1.521334403934273E-6
-2.35,1.6302089613502573E-6
-2.12,1.8686487769008086E-6
-1.89,2.242597664444806E-6
-1.66,2.8246241589623033E-6
-1.43,3.7409963861219267E-6
-1.2,4.712037687355911E-6
-1.176,5.289618534684656E-6
-1.1520000000000001,5.4464801880749675E-6
-1.128,5.6593713343314135E-6
-1.104,5.867616447134919E-6
-1.08,6.083766326318763E-6
-1.056,6.389627030683602E-6
-1.032,6.677554205039105E-6
-1.008,6.904256148606886E-6
-0.984,7.213940792164241E-6
-0.96,7.582731488905067E-6
-0.9359999999999999,7.973932637252872E-6
-0.9119999999999999,8.349076233076595E-6
-0.8879999999999999,8.806112560399998E-6
-0.8639999999999999,9.28288237630465E-6
-0.8400000000000001,9.813348626880198E-6
-0.8160000000000001,1.0404060751698435E-5
-0.792,1.1036744454949164E-5
-0.768,1.1755994618265944E-5
-0.744,1.2436537476473241E-5
-0.72,1.3335497674602779E-5
-0.696,1.4321340246364172E-5
-0.6719999999999999,1.5330911996269134E-5
-0.6480000000000001,1.6539673203010534E-5
-0.6240000000000001,1.8010386465335488E-5
-0.6000000000000001,1.9395640721422214E-5
-0.5759999999999998,2.1049452613703808E-5
-0.552,2.3158194278422757E-5
-0.5279999999999998,2.5678172343381208E-5
-0.504,2.9928752706604465E-5
-0.48000000000000004,1.134743594915128E-4
-0.4728326194118064,-9.02802839370548E-16
-0.456,-2.936777580871267E-4
0.4728226451608597,7.705289558252677E-16
0.4799999999999992,1.1364006450863672E-4
0.4559999999999992,-2.9352796659514444E-4
0.5039999999999989,2.9902257442704293E-5
0.5279999999999989,2.5595594633487166E-5
0.5519999999999989,2.3075510427563763E-5
0.575999999999999,2.132024933873116E-5
0.599999999999999,1.9665156954221777E-5
0.623999999999999,1.797095648600475E-5
0.647999999999999,1.651982834305769E-5
0.671999999999999,1.540212001479377E-5
0.6959999999999993,1.4412714899453828E-5
0.7199999999999991,1.3302156253258488E-5
0.7439999999999991,1.2452955038672432E-5
0.7679999999999991,1.1761678587961531E-5
0.7919999999999989,1.1047676241764164E-5
0.8159999999999992,1.0397086856640074E-5
0.8399999999999994,9.789517079029487E-6
0.8639999999999992,9.270603389033978E-6
0.8879999999999992,8.787524437657098E-6
0.9119999999999993,8.324467264906413E-6
0.9359999999999993,7.957383920311027E-6
0.9599999999999993,7.540600314612344E-6
0.9839999999999991,7.130931763233828E-6
1.0079999999999987,6.816561322517249E-6
1.0319999999999991,6.519775013625441E-6
1.0559999999999992,6.243435892140489E-6
1.0799999999999992,5.9564521478828775E-6
1.103999999999999,5.682974747666603E-6
1.1279999999999994,5.553725674709588E-6
1.1519999999999995,5.356919550154884E-6
1.1759999999999997,5.028008780254276E-6
1.1999999999999997,4.326296957545257E-6
1.4299999999999997,3.5852268771394085E-6
1.6599999999999997,2.8644287064877273E-6
1.89,2.2468465499206287E-6
2.1199999999999997,1.8676079710755445E-6
2.3499999999999996,1.6091355894984372E-6
2.58,1.4642736528264223E-6
2.81,1.3377539966764226E-6
3.0399999999999996,1.3010399475902533E-6
3.2699999999999996,1.2282603493266837E-6
3.5,1.2083565028142669E-6
0.484375,-4.467174991171479E-5
0.4921875,-4.450646162564515E-4
0.4765625,7.629344794058204E-5
0.46875,7.592292528983257E-5
0.4609375,8.606345374360339E-5
0.453125,8.915422056645066E-5
0.4453125,9.15517878076269E-5
0.4375,9.352774217434925E-5
0.4296875,9.526377928662129E-5
0.421875,9.739073000167384E-5
0.4140625,9.945128977105477E-5
0.40625,1.0148251096765704E-4
0.3984375,1.0374128588039235E-4
0.390625,1.063639882244111E-4
0.3828125,1.0858413597967468E-4
0.375,1.1057233334664084E-4
0.3671875,1.1308055237351997E-4
0.359375,1.155070132414851E-4
0.3515625,1.1785105010950897E-4
0.34375,1.2098858582256216E-4
0.3359375,1.2321740465894796E-4
0.328125,1.2361092485724257E-4
0.3203125,1.2482747176727465E-4
0.3125,1.259142594317109E-4
0.3046875,1.261988091141291E-4
0.296875,1.2740242057922724E-4
0.2890625,1.241257194399964E-4
0.28125,1.2001322693805643E-4
0.2734375,9.608937472580207E-5
0.265625,2.7976086485945404E-5
0.2578125,-1.1539379901929075E-4
0.25390625,3.963764245395305E-5
0.25,1.4055232595695886E-4
0.24609375,1.8747546924403514E-5
0.2421875,1.7622993140442589E-4
0.234375,1.152344412284402E-4
0.23046875,-1.552786200402483E-5
0.2265625,-7.516850413904601E-6
0.23828124999999997,3.951587002309728E-5
0.22265625,-3.8011851959350514E-6
0.21875,-2.0140741574508357E-5
0.0036305970665605316,-0.008678488015648956
0.004263326976165597,-0.008456322523676679
0.002391478042776268,-0.009123007010961599
0.0012474286888729373,-0.009532692818990203
0.05634715204181576,7.404218506883484E-4
0.05806970738558334,5.436706690370774E-4
0.2109375,-6.468038833660831E-5
0.20703125,-8.637739941202287E-5
0.203125,-1.2996611369774994E-4
0.21484375,-5.269902534041037E-5
0.005089392083770818,-0.008196763213781029
0.005139085387223638,-0.008182864741284317
0.005869988258180528,-0.007974305143044601
0.0067324354791715455,-0.007752836928471246
0.00673341363937396,-0.007752527558401802
-0.0023914931635714886,-0.009122773464212686
-0.00124765367616973,-0.00953458797892692
-1.6879230981138726E-20,-0.009983029879933861
-0.0036306964282753623,-0.008679899849367501
0.04099469148968454,4.7105265932326126E-4
0.03882888601975458,6.4360220688294E-5
0.05197189443060786,6.966665629312131E-4
0.05422000468863544,5.970806202510311E-4
0.04752816235936083,7.516276365628818E-4
0.04869011843336881,6.851579109381153E-4
0.04979672421056289,7.139727945259116E-4
0.04530916818888779,7.712177890086047E-4
0.060592294013965,6.031344212299093E-4
0.06246680172762524,6.429848650216227E-4
0.05859375,6.022215936505249E-4
0.064453125,5.969187742861672E-4
0.06640625,7.18949020347502E-4
0.072265625,5.971790236864258E-4
0.07421875,7.119915650088618E-4
0.0703125,4.947752929482975E-4
0.080078125,2.833372134381309E-4
0.08203125,1.3449067870986096E-4
0.078125,3.7878102736899305E-4
0.1953125,-1.3139090005293087E-4
0.19140625,-1.38456704349462E-4
0.1875,-1.4166465079921763E-4
0.19921875,-1.3887652709141838E-4
0.008524988806823128,-0.007168039800242398
0.009575956653570113,-0.006856651830938931
0.010444275070697374,-0.006685130311901221
0.011042819927306474,-0.006530845252220537
0.01243873813300385,-0.006114591161550642
0.014519923151279042,-0.005471629672835176
-0.004180009759741747,-0.008486647513744287
0.03481527737467032,-7.822852217227341E-4
0.036963500583793094,-3.016944564493538E-4
0.042217208687788804,6.99463721228202E-4
0.04323165805490795,7.450673236136567E-4
0.068359375,6.811798074404951E-4
0.076171875,6.163868547851265E-4
0.083984375,7.436396823363779E-5
0.0859375,1.2634042352203056E-4
0.091796875,-4.221991585466496E-5
0.09375,-8.023764591950479E-6
0.08984375,-6.170315142860817E-5
0.087890625,6.406966332871732E-6
0.099609375,-1.5055119003762766E-4
0.1015625,-1.2286400378093415E-4
0.09765625,-8.81664556938866E-5
0.095703125,-2.7723014654415738E-5
0.103515625,5.822168597452028E-5
0.10546875,1.1953237734077201E-4
0.162109375,2.873974641248724E-5
0.1635784831145284,-1.8457184934971005E-4
0.16015625,2.752471151729911E-4
0.15820312500000003,-1.5850601453116093E-4
0.1580890672477212,-1.8457184934971005E-4
0.16796875,-4.4429608554626367E-5
0.16878633948504654,-1.8457184934971005E-4
0.166015625,-9.270166304468176E-5
0.1647811133433231,-1.8457184934971005E-4
0.18359375,-1.256779512490357E-4
0.1796875,-1.0902583380121123E-4
0.028677581324430018,-0.0021502425396140923
0.026693314018043736,-0.002648867355731166
0.030710815371991093,-0.001659460967199656
0.03253940705268914,-0.0012427998158989677
0.03272857007903494,-0.0012074800694322138
0.01628758252725749,-0.004934039795642824
0.022587883562296247,-0.0036500679910902133
0.023706306271770908,-0.0034043401191437552
-0.005368306067109632,-0.00809524683031796
-0.005135919107782178,-0.008172695996471241
0.107421875,-5.348033600994059E-5
0.10870546186594117,-1.8457184934971005E-4
0.115234375,-4.6563062869062205E-4
0.11718749999999999,-4.663324428680596E-4
0.11328125,-4.3200560224367237E-4
0.111328125,-3.7482318595416243E-4
0.109375,-2.6002172579813083E-4
0.12109375,-5.614223728960832E-4
0.123046875,-5.018981881072073E-4
0.119140625,-5.335209094155142E-4
0.125,-5.17293157141267E-4
0.138671875,-5.114678281663356E-4
0.140625,-4.4251998470782943E-4
0.13671875,-5.256261322647243E-4
0.134765625,-4.346627243810363E-4
0.1328125,-4.087945389874793E-4
0.14453125,-5.145832910796492E-4
0.146484375,-6.079353440877242E-4
0.142578125,-4.268311940139442E-4
0.1484375,-5.832009503168105E-4
0.1640625,-2.459845284636336E-4
0.15625,-5.55245519605657E-4
0.169921875,-4.791037944840875E-4
0.171875,-4.923824258636382E-4
0.17578125,-1.6077210543962632E-4
0.02462866195338918,-0.0031800196340139456
0.018507177647050066,-0.004592104212999048
0.01852024067007473,-0.004589616665921332
0.020658252884907528,-0.004072885814346762
0.016318925028599576,-0.004927655859126554
-0.0058842263245291165,-0.007969122916025742
0.130859375,-5.201325650432357E-4
0.12890625,-6.27558102118157E-4
0.126953125,-6.118623693665063E-4
0.154296875,-4.1763997288544926E-4
0.15234375,-3.0426124055682273E-4
0.150390625,-3.9998551685602114E-4
-0.0075587547879068205,-0.007452127951291262
-0.006727957184744948,-0.0077396446909813
-0.0085093470190504,-0.007123427013571507
-0.01005808302692468,-0.0066811721953535606
-0.010514810628500508,-0.006723024937769885
-0.010459905302457183,-0.006728824246911798
-0.012449705565611962,-0.006144865084315814
-0.01451613733555563,-0.005461223845449346
-0.016503926866013676,-0.004855296895170777
-0.016313410000100514,-0.00491250134467155
-0.017992988014575634,-0.004781520945404531
-0.02258281645839402,-0.003636146224498143
-0.020672141559003678,-0.004111044895940489
-0.018531203809715017,-0.004658119200602769
-0.0242937295880448,-0.0031905355148465057
-0.02665702048001739,-0.002549151683102309
-0.02863363907612168,-0.0020295122089500238
-0.024603442590753036,-0.0031107299994980984
-0.032626425452026195,-0.0012111277087067888
-0.030671779023029713,-0.001552209483730792
-0.03488056329475301,-9.616568065352296E-4
-0.032726279327136204,-0.0012011862805422335
-0.037089233532443214,-6.471428813770219E-4
-0.03948580451337913,-2.946860960073649E-4
-0.038993901343972424,-3.8901564022955653E-4
-0.0453373064470701,6.939085627982526E-4
-0.043367157838611024,3.727847408793284E-4
-0.04117259864775438,-1.774322272999673E-5
-0.04952796140104943,9.901078121631228E-4
-0.04747025171856955,9.107358087856854E-4
-0.05189641712219494,9.040387560512571E-4
-0.04969590890576175,9.909605580839804E-4
-0.058189241431246194,5.871775036397804E-4
-0.05629939227618708,8.716407236128659E-4
-0.054189236542351166,6.816154043785133E-4
-0.05859375,6.35049253539986E-4
-0.060597532209834847,6.939809494346505E-4
-0.06246150137139074,7.75110577495693E-4
-0.06640625,7.547524913342973E-4
-0.064453125,7.503427321196537E-4
-0.0703125,5.047087833015642E-4
-0.068359375,7.037407185606403E-4
-0.072265625,4.21892064419978E-4
-0.07421875,4.1403119502897976E-4
-0.078125,3.2346372654060314E-4
-0.076171875,3.959675476171364E-4
-0.080078125,4.8576969105286244E-4
-0.08203125,4.5853324144906946E-4
-0.0859375,-4.144154102647856E-5
-0.083984375,1.6946986668588862E-5
-0.08984375,2.741838509702308E-5
-0.087890625,8.21420709969875E-5
-0.091796875,-4.140693173630444E-5
-0.09375,-1.0614979235528195E-4
-0.09765625,-1.536406162928593E-4
-0.095703125,-1.4115367131374795E-4
-0.099609375,-1.685064589828614E-4
-0.10104622533765922,-1.8457184934971005E-4
-0.1015625,-1.918227374508356E-4
-0.10546875,-2.3768938622134123E-4
-0.103515625,-2.194432338334464E-4
-0.109375,-2.7626538504743186E-4
-0.107421875,-2.6289146329344545E-4
-0.111328125,-2.2902486759206192E-4
-0.11328125,-3.308599167117511E-4
-0.1171875,-4.5891267370603824E-4
-0.115234375,-4.93202207164711E-4
-0.12109375,-4.135506230043919E-4
-0.119140625,-4.013076368833898E-4
-0.123046875,-4.510397812422834E-4
-0.125,-4.7577936881123515E-4
-0.12890625,-4.076424091066895E-4
-0.126953125,-5.067626536959083E-4
-0.1328125,-3.520548216333975E-4
-0.130859375,-3.4796766330582614E-4
-0.13671875,-4.134919730155779E-4
-0.134765625,-3.5038446971776926E-4
-0.138671875,-4.129721405637766E-4
-0.14369213301015743,-1.8457184934971005E-4
-0.14453125,-1.6599151756279077E-4
-0.140625,-3.253147843392489E-4
-0.1449010248453555,-1.8457184934971005E-4
-0.142578125,-2.0027742731857382E-4
-0.14648437499999997,-2.741089993695964E-4
-0.15234375,6.93852979864145E-5
-0.1508971207084217,-1.8457184934971005E-4
-0.1484375,-4.391511335000795E-4
-0.154296875,-1.235616498545607E-4
-0.15473109961143983,-1.8457184934971005E-4
-0.150390625,-2.528122230601933E-4
-0.15625,-3.5428215242849797E-4
-0.158203125,-3.3913972380863886E-4
-0.1640625,1.513820407973762E-4
-0.162109375,7.285250330435157E-6
-0.1608829556571323,-1.8457184934971005E-4
-0.16015625,-2.917540831404423E-4
-0.165656175027829,-1.8457184934971005E-4
-0.16796875,-4.0686758154558463E-4
-0.16601562500000003,-2.518801088141861E-4
-0.171875,-1.4966141319715674E-4
-0.17578125,-1.327013649662065E-4
-0.1796875,-1.0515355624259682E-4
-0.18359375,-1.5190084778577944E-4
-0.1875,-1.3374885320246738E-4
-0.19140625,-1.3150144164225886E-4
-0.1953125,-1.282141908872707E-4
-0.19921875,-1.2387043513857428E-4
-0.203125,-1.2112144248968616E-4
-0.20703125,-1.1285831396884663E-4
-0.2109375,-7.31869697430739E-5
-0.21484375,-3.54020850894597E-5
-0.21875,-1.4717150937498033E-5
-0.22265625,-4.819727788820865E-6
-0.2265625,-1.7715761253184488E-5
-0.23046875,-2.0379293823188086E-5
-0.234375,1.1922559644067168E-4
-0.23828125,6.248038697450685E-5
-0.2421875,1.8988311706922826E-4
-0.24609375,1.6567899074190886E-5
-0.25,1.4958535780128137E-4
-0.25390625,5.7494243514175826E-5
-0.2578125,-1.1657898928877931E-4
-0.265625,2.0528193701030287E-5
-0.2734375,1.068702104432238E-4
-0.28125,1.193697939165508E-4
-0.2890625,1.2135539268457677E-4
-0.296875,1.2668475595544511E-4
-0.3046875,1.2881913980075047E-4
-0.3125,1.2774596661365226E-4
-0.3203125,1.2541961631843193E-4
-0.328125,1.2421486129953526E-4
-0.3359375,1.2297869868045392E-4
-0.34375,1.2039270881207369E-4
-0.3515625,1.1791992377309813E-4
-0.359375,1.1566275342955214E-4
-0.3671875,1.1333931583283781E-4
-0.375,1.1098206870107513E-4
-0.3828125,1.0856023134772283E-4
-0.390625,1.0619380083305967E-4
-0.3984375,1.0396964516917219E-4
-0.40625,1.0180137919635953E-4
-0.4140625,9.939983707668836E-5
-0.421875,9.742853105248507E-5
-0.4296875,9.589138370239784E-5
-0.4375,9.385597801558031E-5
-0.4453125,9.154405026215451E-5
-0.453125,8.918160006550751E-5
-0.4609375,8.61491371725075E-5
-0.46875,7.643391477942223E-5
-0.4765625,7.665766990798753E-5
-0.484375,-4.423651781557906E-5
-0.4921875,-4.4461426572316165E-4
