Plane Section: Position[X] (m),Plane Section: Position[Y] (m)
-3.5,1.10E-04
-3.27,1.11E-04
-3.04,1.16E-04
-2.81,1.23E-04
-2.58,1.34E-04
-2.35,1.50E-04
-2.12,1.72E-04
-1.89,2.06E-04
-1.66,2.55E-04
-1.43,3.30E-04
-1.2,4.14E-04
-1.176,4.60E-04
-1.152,4.76E-04
-1.128,4.97E-04
-1.104,5.16E-04
-1.08,5.37E-04
-1.056,5.62E-04
-1.032,5.86E-04
-1.008,6.12E-04
-0.984,6.41E-04
-0.96,6.72E-04
-0.936,7.07E-04
-0.912,7.42E-04
-0.888,7.82E-04
-0.864,8.24E-04
-0.84,8.72E-04
-0.816,9.24E-04
-0.792,9.79E-04
-0.768,0.001041186
-0.744,0.001109437
-0.72,0.001186992
-0.696,0.001268941
-0.672,0.0013635
-0.648,0.001468701
-0.624,0.001588975
-0.6,0.001718361
-0.576,0.001880926
-0.552,0.002053924
-0.528,0.002291458
-0.504,0.002632234
-0.4921875,0.00249683
-0.484375,0.001983696
-0.48,0.003492187
-0.4765625,0.00173848
-0.46875,0.001584618
-0.4609375,0.001664941
-0.456,0.003166961
-0.453125,0.001757639
-0.4453125,0.001906333
-0.4375,0.002098751
-0.4296875,0.002265308
-0.421875,0.002398743
-0.4140625,0.002577478
-0.40625,0.002437674
-0.40234375,0.002433763
-0.3984375,0.002859201
-0.39453125,0.002700675
-0.390625,0.003117781
-0.38671875,0.00304364
-0.3828125,0.003438518
-0.37890625,0.003489983
-0.375,0.003605924
-0.37109375,0.003764683
-0.3671875,0.003936237
-0.36328125,0.00407366
-0.359375,0.004038973
-0.35546875,0.003999029
-0.3515625,0.004184633
-0.34765625,0.004452265
-0.34375,0.004588093
-0.33984375,0.004638389
-0.3359375,0.004684642
-0.333388835,0.005174823
-0.332621373,0.005278929
-0.33203125,0.005266087
-0.330874731,0.005174823
-0.328125,0.005174823
-0.32421875,0.005174823
-0.321309742,0.005174823
-0.3203125,0.005412658
-0.318359375,0.005302203
-0.31640625,0.005814031
-0.314453125,0.005869271
-0.3125,0.00593267
-0.310546875,0.006029079
-0.30859375,0.005982608
-0.306640625,0.005953965
-0.3046875,0.005999419
-0.303171445,0.048188308
-0.302734375,0.006041264
-0.302668477,0.04783463
-0.302445692,0.04800641
-0.301228231,0.047775446
-0.301035605,0.047050459
-0.300898109,0.046963294
-0.30078125,0.006044189
-0.300616949,0.04758721
-0.300406966,0.046577317
-0.299887107,0.047361435
-0.299459824,0.045733174
-0.298828125,0.006021679
-0.298810338,0.046948119
-0.298353957,0.04512402
-0.297689945,0.046556795
-0.297503452,0.044649729
-0.296875,0.005951852
-0.296818181,0.046263608
-0.296452622,0.046137815
-0.296148671,0.043891136
-0.295422606,0.043495614
-0.295419012,0.045754794
-0.294921875,0.005898604
-0.294659182,0.045495431
-0.293937215,0.04266092
-0.29326192,0.042294784
-0.293099368,0.044924563
-0.29296875,0.005911726
-0.292381608,0.044686767
-0.291724111,0.041426689
-0.291454613,0.044352438
-0.291064678,0.041065763
-0.291015625,0.005964144
-0.290750665,0.044093253
-0.290048272,0.043852731
-0.28909728,0.039992149
-0.2890625,0.00609829
-0.287970453,0.043087028
-0.287109375,0.006425479
-0.286980073,0.039058132
-0.285790874,0.042325303
-0.28515625,0.007101082
-0.285100023,0.038172089
-0.285097243,0.007127948
-0.283839455,0.041635442
-0.283215104,0.03724843
-0.283203125,0.00823094
-0.282383773,0.036831714
-0.281873217,0.040935227
-0.281319469,0.036379605
-0.28125,0.008858648
-0.280082885,0.009081073
-0.279915072,0.040238153
-0.279482771,0.035589953
-0.279296875,0.009191574
-0.278034444,0.039569198
-0.27757186,0.039404649
-0.277493557,0.034737119
-0.27734375,0.009408865
-0.27599878,0.038843986
-0.275585117,0.033903469
-0.275390625,0.009567676
-0.274040637,0.038146892
-0.273835077,0.033118456
-0.2734375,0.009721508
-0.272237087,0.037508899
-0.271772936,0.032223259
-0.271484375,0.009948132
-0.270126638,0.036746424
-0.26982179,0.03133738
-0.26953125,0.010281443
-0.268115157,0.036026316
-0.267982218,0.030484077
-0.267578125,0.010715246
-0.266348736,0.011034198
-0.266213031,0.035344878
-0.266096149,0.029588962
-0.265625,0.011312597
-0.264256956,0.034642104
-0.264231133,0.02866975
-0.263671875,0.01210249
-0.262357452,0.027706857
-0.262311855,0.033942923
-0.26171875,0.012940921
-0.261616564,0.012987323
-0.260517419,0.02668526
-0.260345209,0.033235449
-0.259765625,0.014325872
-0.259745573,0.026221831
-0.258907279,0.014940448
-0.258842387,0.025460466
-0.258389545,0.032531545
-0.2578125,0.016421234
-0.257434265,0.016893573
-0.257223417,0.023581363
-0.256657025,0.018846698
-0.256514474,0.031856354
-0.25597885,0.021295477
-0.255886148,0.020799823
-0.254478728,0.031122334
-0.2525235,0.030417232
-0.250726754,0.029771242
-0.249890104,0.029468039
-0.248613586,0.02900554
-0.246606504,0.028281307
-0.244703638,0.027593941
-0.242749178,0.026886731
-0.240808532,0.026183647
-0.238841271,0.025469526
-0.236887911,0.02475929
-0.235018175,0.024078513
-0.232982221,0.023335992
-0.231030094,0.022622371
-0.229239019,0.021971604
-0.227127011,0.021191913
-0.225127012,0.020456189
-0.224858297,0.020357207
-0.223225176,0.019758023
-0.221274038,0.019041685
-0.219339353,0.018330583
-0.217372417,0.017607208
-0.21542184,0.016889328
-0.21355757,0.016202651
-0.21152109,0.015452459
-0.209571356,0.014732262
-0.207785491,0.014078099
-0.205674195,0.013285533
-0.203683494,0.012532246
-0.202478752,0.012072993
-0.201786044,0.011814046
-0.199838116,0.011088888
-0.197908729,0.010371611
-0.195941106,0.009641743
-0.19399232,0.008918943
-0.192133244,0.008227153
-0.190098218,0.007463808
-0.188157411,0.006719085
-0.186378733,0.006056211
-0.184840672,0.005445169
-0.18427458,0.005232982
-0.182280039,0.004498242
-0.180371668,0.003802054
-0.178417682,0.003093539
-0.176484409,0.002395339
-0.174687953,0.001749882
-0.174506863,0.001684334
-0.172552803,9.76E-04
-0.170691381,3.00E-04
-0.168645677,-4.43E-04
-0.166692279,-0.00115346
-0.164911044,-0.001798145
-0.16278677,-0.002577252
-0.16249238,-0.002688226
-0.160742541,-0.003167469
-0.158846571,-0.003905739
-0.156889244,-0.004605071
-0.154941546,-0.005255215
-0.154300758,-0.005462363
-0.152950758,-0.005938263
-0.150992457,-0.006634921
-0.149131118,-0.007302034
-0.147079909,-0.008039377
-0.145125449,-0.008746588
-0.143351818,-0.009400872
-0.141218216,-0.010165647
-0.139226054,-0.010890895
-0.137313849,-0.011592578
-0.135361316,-0.012305085
-0.133436493,-0.013009629
-0.131459195,-0.013738188
-0.129507029,-0.014451701
-0.127654428,-0.015133519
-0.125611669,-0.01590338
-0.125517293,-0.015938687
-0.123566054,-0.016671507
-0.121805702,-0.017323194
-0.119772264,-0.018090885
-0.11778986,-0.018834912
-0.11588168,-0.019555685
-0.113938347,-0.020293468
-0.1120251,-0.021021347
-0.111402749,-0.021284049
-0.110068844,-0.021816189
-0.108124934,-0.022552386
-0.106265401,-0.023205806
-0.104195318,-0.023909947
-0.104120368,-0.023934619
-0.10292122,-0.024162985
-0.102073573,-0.024461119
-0.100297353,-0.02506993
-0.098248134,-0.025801333
-0.096261328,-0.026525221
-0.09433915,-0.027215579
-0.092388855,-0.027934235
-0.090466846,-0.028629545
-0.088475464,-0.029336373
-0.086527382,-0.030061107
-0.084695671,-0.030781561
-0.084174388,-0.030986274
-0.082655803,-0.031578125
-0.080616243,-0.032347297
-0.078853676,-0.032994351
-0.07680949,-0.033746651
-0.074823318,-0.034502392
-0.072925533,-0.03522966
-0.070981873,-0.035966542
-0.069071703,-0.036685862
-0.068531401,-0.036887944
-0.067089126,-0.037425402
-0.065142898,-0.038155229
-0.063295661,-0.038823566
-0.06123884,-0.03958301
-0.059199023,-0.040343669
-0.057438483,-0.040997035
-0.055397673,-0.041765676
-0.053420022,-0.042498585
-0.051498786,-0.043207663
-0.049544429,-0.043915158
-0.047617206,-0.04457908
-0.045612104,-0.045265275
-0.04364956,-0.045950278
-0.042525961,-0.04635315
-0.041797736,-0.046596495
-0.040758069,-0.046788522
-0.039644269,-0.047099924
-0.039349622,-0.047162429
-0.037574069,-0.047769289
-0.035803958,-0.048397109
-0.033762536,-0.049171132
-0.031790129,-0.049910366
-0.031569221,-0.049994264
-0.029872565,-0.050637618
-0.027945061,-0.051418891
-0.027304146,-0.051685349
-0.026064991,-0.052203795
-0.024074124,-0.052937669
-0.023158098,-0.053194387
-0.022066452,-0.053498677
-0.021599436,-0.053622968
-0.020188951,-0.054064709
-0.018402935,-0.054693916
-0.018115011,-0.054795811
-0.016409734,-0.055419382
-0.016076413,-0.055542433
-0.014315253,-0.056190066
-0.013971041,-0.056306994
-0.012253422,-0.056884584
-0.011934345,-0.056986634
-0.010331366,-0.057528968
-0.010292408,-0.05754273
-0.008440228,-0.058206438
-0.00666854,-0.058839008
-0.006397878,-0.058933237
-0.005117799,-0.059390265
-0.003622785,-0.059926417
-0.00319735,-0.060079866
-0.00238675,-0.0603725
-0.001245541,-0.060789308
-9.57E-04,-0.060895207
-7.80E-21,-0.061246604
0.001212471,-0.060802303
0.001245534,-0.060790179
0.002386716,-0.060372623
0.002961617,-0.060165666
0.003623338,-0.059927865
0.005118672,-0.059392377
0.006494176,-0.058898188
0.006667831,-0.058836311
0.008438536,-0.058201366
0.009742237,-0.057743393
0.010297609,-0.057557149
0.011195514,-0.057255547
0.012267029,-0.056922102
0.0125998,-0.056806084
0.014322837,-0.056210916
0.016087399,-0.055572621
0.018133555,-0.054846763
0.019623269,-0.054342234
0.020217911,-0.054144277
0.022091291,-0.053566922
0.022447566,-0.053453
0.024071446,-0.052930312
0.026047701,-0.052156292
0.026232463,-0.05207541
0.027927586,-0.051370877
0.029865616,-0.050618525
0.030165507,-0.050505174
0.031784206,-0.049894091
0.033757364,-0.049156922
0.035808708,-0.048410158
0.037578067,-0.047780274
0.039446245,-0.047127261
0.039634496,-0.04707307
0.041478442,-0.046526327
0.041743772,-0.046448229
0.043615733,-0.045857337
0.044604061,-0.045596783
0.045604987,-0.045245723
0.047608074,-0.04455399
0.049533406,-0.043884873
0.051491031,-0.043186358
0.05341961,-0.042497452
0.055406567,-0.04179011
0.057455751,-0.041044477
0.059223007,-0.040409566
0.061271911,-0.039673872
0.063333272,-0.038926901
0.065179159,-0.038254857
0.067126446,-0.037527936
0.069108382,-0.036786636
0.071015719,-0.036059535
0.072956449,-0.0353146
0.07485431,-0.034587544
0.074887971,-0.034574341
0.076834783,-0.033816143
0.078873552,-0.03304896
0.080635902,-0.03240131
0.082673979,-0.031628064
0.084716332,-0.030838328
0.08655754,-0.030143967
0.088506119,-0.029420599
0.089617932,-0.029004986
0.090485473,-0.028680722
0.09239903,-0.027962189
0.094348556,-0.027241422
0.09626804,-0.02654366
0.098251228,-0.025809834
0.100291015,-0.025052516
0.102054566,-0.024408897
0.104105817,-0.023664045
0.106156253,-0.022905924
0.107996469,-0.022199433
0.109948305,-0.02148501
0.111931659,-0.020764621
0.113851288,-0.020054277
0.115287936,-0.019523143
0.115801505,-0.019335408
0.117717636,-0.018636478
0.119037035,-0.018158583
0.119708838,-0.017916625
0.121163645,-0.01738456
0.121750063,-0.017170326
0.123511098,-0.016520518
0.124356344,-0.016881458
0.125563096,-0.015769926
0.125752602,-0.016290591
0.125792642,-0.016400599
0.127613436,-0.015020894
0.127775074,-0.01546499
0.127854643,-0.015683604
0.129466961,-0.014341615
0.129597612,-0.014700577
0.129717736,-0.015030616
0.130293503,-0.014408377
0.131419934,-0.013630318
0.131524125,-0.013916582
0.131675998,-0.014333849
0.133401333,-0.012913028
0.133485183,-0.013143404
0.133659606,-0.013622626
0.135328503,-0.012214932
0.13539597,-0.012400296
0.135587464,-0.012926421
0.137282154,-0.011505496
0.137331851,-0.011642038
0.137449365,-0.011595768
0.137538839,-0.012210734
0.139197912,-0.010813577
0.139214213,-0.010858362
0.139446988,-0.011497906
0.14119236,-0.010094607
0.141192513,-0.010095028
0.141222335,-0.010083794
0.141432605,-0.010754675
0.143551494,-0.009949478
0.145311381,-0.009257432
0.145464089,-0.009198867
0.147246364,-0.008496708
0.149282355,-0.007717553
0.151131697,-0.007017481
0.153079053,-0.00629075
0.155049864,-0.005552816
0.156970589,-0.004828566
0.158914701,-0.004092922
0.160817123,-0.003372382
0.162803007,-0.002621865
0.164921812,-0.00182773
0.166220247,-0.001332111
0.166692165,-0.001153145
0.168638109,-4.23E-04
0.170676087,3.42E-04
0.172529601,0.00103977
0.174475601,0.001770226
0.176444134,0.002505994
0.178369857,0.003224936
0.180316533,0.003953535
0.182218418,0.004667545
0.184207879,0.005416243
0.184924675,0.005683832
0.186324514,0.006205177
0.188101576,0.006872491
0.190048895,0.00759932
0.192085631,0.008357969
0.19394452,0.009050272
0.195892545,0.009775163
0.197859427,0.010507066
0.199788244,0.01122591
0.200552804,0.011510731
0.201736917,0.011949021
0.203639741,0.012652455
0.205636201,0.013389919
0.207752665,0.014168287
0.209536514,0.01482799
0.211486984,0.015546164
0.213523991,0.016294908
0.215388755,0.016980229
0.21733981,0.017696796
0.219307173,0.018418996
0.221242282,0.019128934
0.22305537,0.019793479
0.223193837,0.019844126
0.225096601,0.020539742
0.227098288,0.021270829
0.22921357,0.022041525
0.231003552,0.022695295
0.232956417,0.023406891
0.234992781,0.024148285
0.236862685,0.024828599
0.238816064,0.025538782
0.240783135,0.026253426
0.242723299,0.026957834
0.244677133,0.027666764
0.246579228,0.028356246
0.247028097,0.028518838
0.248585756,0.029082004
0.250699843,0.029845179
0.252495474,0.030494234
0.254450576,0.031199682
0.25605717,0.020799823
0.256150965,0.021358122
0.256486045,0.031934463
0.256850552,0.018846698
0.257212606,0.023611066
0.25769341,0.016893573
0.2578125,0.016754474
0.258360708,0.032610774
0.258796104,0.025587627
0.259258292,0.014940448
0.25933886,0.026073799
0.259765625,0.014596576
0.260315833,0.033316158
0.26049091,0.026758091
0.26171875,0.013262745
0.262127027,0.012987323
0.262281828,0.034025421
0.262338302,0.027759471
0.263671875,0.012378356
0.264219416,0.028701941
0.264226155,0.034726731
0.265625,0.011696197
0.266091901,0.029600634
0.266181328,0.035431982
0.267578125,0.011121072
0.267936117,0.011034198
0.267985269,0.030475694
0.268082071,0.036117218
0.26953125,0.010781199
0.269831533,0.03131061
0.270091964,0.036841689
0.271484375,0.010545131
0.271789163,0.032178673
0.272203158,0.037602118
0.2734375,0.01032199
0.273853958,0.033066583
0.274002547,0.038251545
0.275390625,0.010052514
0.275611159,0.03383192
0.275958005,0.038956014
0.275967546,0.038959452
0.27734375,0.009690965
0.277523479,0.034654909
0.277992619,0.039684112
0.279296875,0.009119578
0.279384847,0.009081073
0.279515803,0.035499197
0.279872454,0.040355244
0.280758809,0.007127948
0.28125,0.00678451
0.281354851,0.036282393
0.281829609,0.041055039
0.283203125,0.006204311
0.283271134,0.037094489
0.283794606,0.041758664
0.284290908,0.037525854
0.28515625,0.00605555
0.285169175,0.037982097
0.285744672,0.042452237
0.287028976,0.038923781
0.287109375,0.005957901
0.287920534,0.043223812
0.2890625,0.005908006
0.289120356,0.039928457
0.289998601,0.043989709
0.290697315,0.044237299
0.290841297,0.044290699
0.291015625,0.005916107
0.291064594,0.041066825
0.291703604,0.041480792
0.292332738,0.044820387
0.29296875,0.005953107
0.293049733,0.045056605
0.293223879,0.042399146
0.293880478,0.042812236
0.294608293,0.045629683
0.294921875,0.005999317
0.295351639,0.043682844
0.295363143,0.045895664
0.295513395,0.045951502
0.296062065,0.044110636
0.29676908,0.046380609
0.296875,0.006071177
0.297403824,0.044886029
0.297632848,0.046678471
0.2982386,0.0453715
0.298742535,0.047077166
0.298828125,0.006135862
0.299328959,0.045979913
0.299806837,0.047482119
0.299895656,0.047515055
0.300066345,0.046597212
0.300261411,0.046796291
0.300548837,0.047676502
0.30078125,0.00614944
0.300875937,0.047257096
0.302161101,0.047781653
0.302242408,0.048166169
0.302342025,0.048196077
0.302368655,0.048068385
0.302734375,0.006119833
0.3046875,0.006054434
0.306640625,0.005968642
0.30859375,0.005880821
0.310546875,0.005805808
0.3125,0.005776023
0.314453125,0.005764611
0.31640625,0.005585695
0.318359375,0.005484534
0.3203125,0.005468283
0.321316098,0.005174823
0.32421875,0.005174823
0.327321972,0.005174823
0.328125,0.005310257
0.330078125,0.005338817
0.33203125,0.005377616
0.332552364,0.005290961
0.333860841,0.005174823
0.3359375,0.004694666
0.33984375,0.004405255
0.34375,0.004370453
0.34765625,0.004379598
0.3515625,0.004234077
0.35546875,0.004077137
0.359375,0.004055543
0.36328125,0.004043282
0.3671875,0.0038999
0.37109375,0.003726461
0.375,0.003581746
0.37890625,0.003494262
0.3828125,0.003443546
0.38671875,0.003031063
0.390625,0.003098295
0.39453125,0.0026718
0.3984375,0.002847647
0.40234375,0.00242947
0.40625,0.002432442
0.4140625,0.002582859
0.421875,0.002393248
0.4296875,0.002235717
0.4375,0.002085441
0.4453125,0.001917117
0.453125,0.001770239
0.456,0.003189226
0.4609375,0.001668857
0.46875,0.001591297
0.4765625,0.00179823
0.48,0.003513986
0.484375,0.002042024
0.4921875,0.002506163
0.504,0.002642401
0.528,0.002294985
0.552,0.002049188
0.576,0.001879739
0.6,0.0017204
0.624,0.001589585
0.648,0.001468283
0.672,0.001365264
0.696,0.001267603
0.72,0.001186689
0.744,0.001111341
0.768,0.001042238
0.792,9.80E-04
0.816,9.24E-04
0.84,8.73E-04
0.864,8.25E-04
0.888,7.82E-04
0.912,7.42E-04
0.936,7.06E-04
0.96,6.73E-04
0.984,6.41E-04
1.008,6.12E-04
1.032,5.86E-04
1.056,5.61E-04
1.08,5.37E-04
1.104,5.16E-04
1.128,4.96E-04
1.152,4.79E-04
1.176,4.61E-04
1.2,4.13E-04
1.43,3.30E-04
1.66,2.55E-04
1.89,2.06E-04
2.12,1.72E-04
2.35,1.50E-04
2.58,1.34E-04
2.81,1.23E-04
3.04,1.16E-04
3.27,1.11E-04
3.5,1.10E-04
