"Plane Section: Position[X] (m)","Plane Section: Position[Y] (m)"
-3.5,2.860785939708423E-5
-3.27,2.8913876102770455E-5
-3.04,3.0038087956405146E-5
-2.8099999999999996,3.189177607133215E-5
-2.58,3.475859103824079E-5
-2.35,3.881532420714171E-5
-2.12,4.468681215547377E-5
-1.89,5.3278655771391766E-5
-1.66,6.602921628019445E-5
-1.43,8.559905004781614E-5
-1.2,1.0781716510143067E-4
-1.176,1.1893336732135464E-4
-1.1520000000000001,1.2248245203682446E-4
-1.128,1.2857373137016196E-4
-1.104,1.3323561084761928E-4
-1.08,1.381607305648069E-4
-1.056,1.449668431279532E-4
-1.032,1.5110650282260162E-4
-1.008,1.576589683790688E-4
-0.984,1.649498371615112E-4
-0.96,1.7284427971886262E-4
-0.9359999999999999,1.8194244056795407E-4
-0.9119999999999999,1.9055573739066046E-4
-0.8879999999999999,2.0064067918363861E-4
-0.8639999999999999,2.1167945085525525E-4
-0.8400000000000001,2.2362136721573253E-4
-0.8160000000000001,2.3681118973886987E-4
-0.792,2.5058419888931895E-4
-0.768,2.6653106319157515E-4
-0.744,2.839107296042385E-4
-0.72,3.031756827853127E-4
-0.696,3.2361063765709336E-4
-0.6719999999999999,3.4697762515207447E-4
-0.6480000000000001,3.7383983537392005E-4
-0.6240000000000001,4.0378706956558025E-4
-0.6000000000000001,4.3478877995693625E-4
-0.5759999999999998,4.760440367154264E-4
-0.552,5.204620570443541E-4
-0.5279999999999998,5.797790138796971E-4
-0.504,6.593574499387491E-4
-0.48000000000000004,0.0010731251019372111
-0.456,8.888673687118166E-4
0.47999999999999926,0.001077162102493345
0.4559999999999992,8.900289975286626E-4
0.5039999999999991,6.611079498562021E-4
0.5279999999999989,5.811209522629947E-4
0.5519999999999989,5.158616025558707E-4
0.5759999999999992,4.759731954859428E-4
0.599999999999999,4.363015366565026E-4
0.623999999999999,4.026227525250263E-4
0.647999999999999,3.752401683559227E-4
0.671999999999999,3.4821391466245417E-4
0.6959999999999993,3.222617988531501E-4
0.7199999999999991,3.0229818720600547E-4
0.7439999999999991,2.84968350095717E-4
0.7679999999999991,2.669234729833788E-4
0.7919999999999989,2.5041034907759827E-4
0.8159999999999992,2.3655412013823555E-4
0.8399999999999994,2.2403577457025362E-4
0.8639999999999992,2.117040230870819E-4
0.8879999999999992,2.0083987660023957E-4
0.9119999999999993,1.9056627768331778E-4
0.9359999999999993,1.8165752752595412E-4
0.9599999999999993,1.7292020400376854E-4
0.9839999999999991,1.651082591060653E-4
1.0079999999999987,1.574944888468727E-4
1.0319999999999994,1.5098253551260602E-4
1.0559999999999992,1.4446710553864476E-4
1.0799999999999992,1.3850136124359658E-4
1.103999999999999,1.3308533351990025E-4
1.1279999999999994,1.2804275582965476E-4
1.1519999999999995,1.235174267936062E-4
1.1759999999999997,1.1927322505431092E-4
1.1999999999999997,1.0666114480872502E-4
1.4299999999999997,8.544718207283512E-5
1.6599999999999997,6.617058699123608E-5
1.89,5.32680218348894E-5
2.1199999999999997,4.466848453044798E-5
2.3499999999999996,3.8775925716551965E-5
2.58,3.470006150288872E-5
2.81,3.1847207520804436E-5
3.0399999999999996,3.000236862984166E-5
3.2699999999999996,2.891473287223108E-5
3.5,2.865428115787963E-5
0.484375,-2.8029907522443976E-4
0.4921875,2.8020113708304066E-4
0.4765625,-2.7140680758321175E-4
0.46875,-3.397302909116267E-4
0.4609375,-3.04117052199788E-4
0.453125,-2.7938585342005516E-4
0.4453125,-2.5063552815285893E-4
0.43750000000000006,-2.041018294982568E-4
0.4296875,-1.577618904988387E-4
0.421875,-1.276262872824007E-4
0.4140625,-8.115053006651704E-5
0.40625,-3.2199641432536326E-5
0.3984375,2.2051395846275608E-5
0.39062500000000006,7.974375802074325E-5
0.3828125,1.3584110172217326E-4
0.37500000000000006,1.9756052853665276E-4
0.36718749999999994,2.7621988455954754E-4
0.359375,3.606866106176562E-4
0.14968008580963046,0.014449694444388494
0.15017878898426257,0.014606653009591956
0.14383607609136295,0.01252864358431684
0.14562970180673246,0.013127993139312337
0.3515625,4.3052335044940543E-4
0.14169457564017368,0.011785571024449746
0.13969266735293961,0.011087098782708435
0.14760496521261326,0.013778047735031322
0.1504614894651255,0.013656102109050883
0.34375,8.864303116911994E-4
0.13581545670274778,0.00970717895335254
0.13777240450371117,0.010407555258203836
0.13388752429514414,0.009011177486821658
0.15014221590318766,0.013180002492955332
0.16186558505719265,0.01105959416673977
0.1628972633574045,0.010676554737791244
0.15942712361621286,0.011682165667620318
0.15486445734447446,0.012063895759801904
0.1568058444011048,0.01201483798341249
0.15712968947208328,0.011992915078496234
0.3359375,0.0010910771147872866
0.13190722122420873,0.008290875283007728
0.12995535825436724,0.007576528519967499
0.15268638873362922,0.011971043865318068
0.14912443840064923,0.011589287128705703
0.1506495069554706,0.011786231831625145
0.16404211129266477,0.009971256096752437
0.1654992834668224,0.008903577114787287
0.328125,0.0010910771147872866
0.12810264931271537,0.006895007824064454
0.16796875,0.007929904603489548
0.169921875,0.007156302819510874
0.166015625,0.00868077236795703
0.17036541063127997,0.006950452114787287
0.3203125,7.130706423073448E-4
0.31640625,6.362159830673285E-4
0.3125,5.964431774933628E-4
0.11821662318527207,0.0032525693770727106
0.1202040789088106,0.003982717340722609
0.12605441818771063,0.006140180870927776
0.1240045862746629,0.005383639293805162
0.12224374739126809,0.0047332915827794616
0.171875,0.006433026536708637
0.30859375,6.000445385862556E-4
0.3046875,5.946435346854463E-4
0.09632280328912578,-0.003434117767807253
0.09831033506723691,-0.0027122240529131128
0.10418448049332285,-6.201673722033038E-4
0.10557447197925937,-1.4536375519036274E-4
0.10212488877737537,-0.001342102477369579
0.1003567613210128,-0.001973148221638182
0.11242173018962207,0.00114892403703862
0.11434739979294131,0.0018426723688096695
0.1163009911551234,0.0025522704130921357
0.17558257070486838,0.004997327114787287
0.173828125,0.005683349415566137
0.296875,5.199016687391712E-4
0.29296875,3.345113785866231E-4
0.2890625,2.430794250605111E-4
0.30078125,6.035503817997451E-4
0.09440404551481152,-0.0041338741111237
0.09245179280491063,-0.004847150072189611
0.09053242674553952,-0.0055497230860056534
0.10422076942129471,-7.198703788119854E-4
0.10222089096512729,-0.0016058663109912213
0.10151815599962605,-0.001933874020936855
0.11043400984622605,4.405304828811815E-4
0.10847279398035979,-2.4811941044464744E-4
0.177734375,0.004315241158672515
0.1796875,0.0036779062431556804
0.17578125000000003,0.004934639717799239
0.18139913541579358,0.003044202114787287
0.189453125,0.0018217036440260981
0.19140625,0.0017578352358597212
0.1875,0.0019194849539127695
0.28515625,2.2978639840262038E-4
0.28125,2.3339838160147753E-4
0.0885486767031993,-0.006277519114266605
0.08659796483143453,-0.00699502849316697
0.08475202436862236,-0.007676387395639752
0.0985597199579194,-0.0033974033842813127
0.09803125881002402,-0.0036711987904708802
0.10660849744654126,-8.884507160341413E-4
0.10052365922170611,-0.0024316964187275536
0.185546875,0.0021182968352161462
0.18359375,0.0024799637759101187
0.18164062500000003,0.0029807810097428993
0.193359375,0.0017345309264785531
0.1953125,0.001718973718529421
0.201171875,0.0015855373913566079
0.203125,0.0015323561408390816
0.19921875,0.0016310225233746283
0.197265625,0.0016753714693894344
0.20703125,0.0013923102983290495
0.208984375,0.0013256598568184626
0.205078125,0.0014675576702883701
0.2109375,0.0013179843253128159
0.224609375,0.0017760678728283579
0.2265625,0.0018613465305960639
0.22265625,0.0017142611472635058
0.220703125,0.0016588369586544797
0.21875,0.0016011559828857107
0.23046875,0.0020232735185474896
0.232421875,0.0020515699329351636
0.228515625,0.001959056786942345
0.234375,0.0020546480932029563
0.244140625,0.002065442978710639
0.24609375,0.0021142578925886775
0.2421875,0.002096275524902263
0.25,0.0019893780159875077
0.25167946885919384,0.0010910771147872866
0.2734375,1.512031680099383E-4
0.26953125,6.419091343479169E-5
0.265625,1.2006465584054068E-4
0.27734375,2.3944358692936502E-4
0.08065532333825003,-0.009194664898325836
0.0826989876127677,-0.008436769022543285
0.07854660981698647,-0.009982701078107455
0.07889644351496541,-0.009851850310654574
0.09859596741082399,-0.0034969924390833088
0.10453723062791599,-0.0015893403670030335
0.10246273113744032,-0.0022703166997455108
0.10067166552272448,-0.0028383403741512932
0.216796875,0.0015370867874131143
0.21484375,0.0014640215056265307
0.212890625,0.0013817102325269866
0.240234375,0.002107839201242161
0.23828125,0.002065698222627297
0.236328125,0.0020495699720948207
0.248046875,0.002045804689397375
0.2578125,7.460056969231198E-4
0.25390625,0.0010323970374550733
0.26171875,3.6059688593965034E-4
0.07685851120919099,-0.010621330579019877
0.07486923302078029,-0.011368539375111212
0.06910363944922619,-0.013513603183610372
0.07101652287471505,-0.01280173813963982
0.07296524125876215,-0.012078751698445401
0.06712094727344026,-0.014252824535655812
0.06517234003802075,-0.014976116355183765
0.0633345818686826,-0.01567049615981808
0.061282111451492136,-0.016441893552950324
0.0592411398824913,-0.017199380032440495
0.057479072822844576,-0.017848549538055185
0.055430112785291565,-0.018594797954180394
0.05344705282843098,-0.019312847367541235
0.049560328777493876,-0.02069883753272491
0.051518528243488036,-0.020001900149159257
0.047638498336323915,-0.021377576598114748
0.03378607796411627,-0.02597580921822784
0.03585754132492554,-0.025284322510544167
0.03658798738922843,-0.025046302720371266
0.04564160990048738,-0.022086338303532696
0.04368223307067387,-0.02278004090670605
0.031796959139112034,-0.026669126175794457
0.041830167093108016,-0.02342559407901664
0.036166842451079664,-0.025407674934423703
0.03975875678337077,-0.024154470800616883
0.037705204774238235,-0.02486957707700461
0.027931091643916727,-0.02812050510785255
0.02603036779416506,-0.02884866367639718
0.02987334484106645,-0.02737975571228106
0.006671302145955403,-0.035586932156102286
0.008099676860836036,-0.03508123139349867
0.0240491810991067,-0.029609134999601522
0.023916870089588434,-0.029658212252464785
0.008446202279260318,-0.034963327092127475
0.009812676109653784,-0.034498854455542585
0.010312107617230944,-0.03433760241704447
0.01152460800078919,-0.033937417904822326
0.012277636984588365,-0.03369136660868315
0.014317872388648473,-0.03293726022732092
0.0036260176567781124,-0.0366796180055774
0.004247829137819418,-0.03645578677804755
0.005121817369210106,-0.03614343959691746
0.002388110055010833,-0.03712185650052753
0.0012458204119208422,-0.03753374605001652
0.01915277798650774,-0.03125347464491582
0.01812979367904142,-0.031576423458364825
0.020241244999415174,-0.030948383552307217
0.02160382269793104,-0.030500092655107947
0.01608036925063991,-0.03229329814501815
0.022100165805856196,-0.03033129948553738
-0.002388141073103184,-0.0371217345283221
-0.0012459788119169187,-0.037534791455428325
-8.6799253773397E-21,-0.03798830382461919
-0.003625688793415527,-0.03667915287913984
-0.004206848647069104,-0.03647070245861383
-0.008442015746754048,-0.034951556517817985
-0.006671924771987539,-0.03558936490645155
-0.005122466017887356,-0.03614667754340928
-0.008961977662629192,-0.03476737957042919
-0.010305533262924034,-0.03431934461466564
-0.010308585470386598,-0.03431835821269682
-0.01164517759649667,-0.03389353416410119
-0.014309846636920117,-0.03291519594639787
-0.013574814127396943,-0.03319120390395945
-0.012273908905850598,-0.03368110250635081
-0.01933825553605187,-0.03109348278521163
-0.01810906265326339,-0.03151946313319628
-0.016067170880078252,-0.03225702923323756
-0.01973602627699843,-0.031041189628185056
-0.02018055395206573,-0.031018120115162605
-0.02603151205994223,-0.028851807520669244
-0.0279341982081095,-0.028129040322518638
-0.022103999719969222,-0.03034183308588178
-0.020258312143247886,-0.03099527550326241
-0.03378885374197442,-0.02598343560494143
-0.03180009342422137,-0.026677737553050106
-0.02987681684503566,-0.027389294964445116
-0.0244184832023483,-0.02947564001017052
-0.024052057671001617,-0.029617038316489083
-0.03572275878825451,-0.025361220176961564
-0.035708405386931936,-0.025574532380057857
-0.04368624556336811,-0.022791065139384448
-0.041835160160766154,-0.02343931241916994
-0.049554573204365286,-0.02068302422608434
-0.04763872672395377,-0.021378204087948195
-0.03593521561778004,-0.025497730868592163
-0.03976306755533299,-0.024166314548819394
-0.03771045606536437,-0.02488400488027999
-0.045644301461167824,-0.02209373330546051
-0.05540889470003159,-0.018536501746132042
-0.05342994534458711,-0.01926584494365959
-0.051507213998276284,-0.01997081451703491
-0.07098567865441693,-0.012716994343884604
-0.06907286965419268,-0.013429063869581717
-0.05745270686128975,-0.01777610965663504
-0.06885090110919614,-0.013511650447858747
-0.06709343415931075,-0.01417723287855287
-0.06514656201742332,-0.01490529182821021
-0.06330541353231245,-0.015590356817147728
-0.07684032856747848,-0.010571374183277565
-0.07484334153534364,-0.011297403106065154
-0.0729355502971431,-0.011997176454756208
-0.061251087959126364,-0.01635665721125484
-0.05921021710014622,-0.017114420389242928
-0.08151859247099638,-0.008900987855292378
-0.08065843117282162,-0.009203203603328956
-0.07888914376328379,-0.009831794408459858
-0.08670495425801505,-0.007288979516291391
-0.08484133400708725,-0.007921763601875149
-0.08274038713023625,-0.008550513257891404
-0.0886609448996397,-0.0065859734378642485
-0.0945005447249839,-0.00439900350257366
-0.09255532009942555,-0.005131588965981317
-0.09064219644958942,-0.005851312858423526
-0.09839540102016228,-0.002945940829370951
-0.09641301926109018,-0.003681984104777837
-0.10816574747738339,5.954838929974812E-4
-0.10631468855906405,-8.121746096107411E-5
-0.10425407384847375,-8.11373537177648E-4
-0.10220146665963747,-0.0015524984721803498
-0.11405489307590673,0.0026463279401234335
-0.11211715146334728,0.0019857471799596418
-0.11012491407831923,0.001289764095244528
-0.10043771691959402,-0.002195571892753841
-0.11462920341226,0.002838156977314825
-0.1159154085188099,0.0028380993686877524
-0.11814913905191818,0.0034379805029946973
-0.12025916513913729,0.0038313691721966964
-0.11616586498069605,0.002923526512814639
-0.12232094778874211,0.004521185241541916
-0.13014807747698603,0.007047036826487844
-0.12826827830105755,0.006439945934882185
-0.13607532856426652,0.008993186907445126
-0.1341274695746708,0.0083519332730238
-0.12376023032533706,0.004991084025527444
-0.1261904454942695,0.005766448931110935
-0.12410777597144927,0.005100127942116421
-0.13212509646562975,0.0076922679983804565
-0.1420292675185522,0.010866012679057797
-0.1400028324357957,0.010234927251772906
-0.13805812018855193,0.009622557893829337
-0.14600976014398376,0.012083791477030084
-0.14419291989844213,0.011548223317201841
-0.14694870494952716,0.012377553105981877
-0.15424912553798692,0.013754505943060703
-0.15214709941483712,0.013452729038195707
-0.15016154676579635,0.013126891386341074
-0.14802243119688854,0.012631069410916042
-0.15526995126931847,0.013826070887201211
-0.15786370039756994,0.01239986607826583
-0.1565150735985488,0.013681558252203095
-0.15931250929955937,0.011997065903296073
-0.1625108447418297,0.010535909863755666
-0.16195186630530284,0.01082253839432321
-0.16404325562639976,0.009911331695606289
-0.16544391895458158,0.008903577114787287
-0.166015625,0.008590330473923607
-0.16796875,0.007673308802410354
-0.16964407518801508,0.006950452114787287
-0.171875,0.006276568696595939
-0.169921875,0.006870420851864288
-0.17578125,0.005019939972219321
-0.173828125,0.005659757485159194
-0.1758462596699195,0.004997327114787287
-0.177734375,0.004507073393861133
-0.1796875,0.003981179347880174
-0.18289417287111293,0.0030442021147872866
-0.181640625,0.0034357846470835377
-0.18359375,0.0028714404659375115
-0.1875,0.0018656176275001798
-0.185546875,0.0023418648379134404
-0.189453125,0.0015867232050543506
-0.19140625,0.0014660544245701697
-0.1953125,0.0013228212684339492
-0.193359375,0.0013993584592719404
-0.197265625,0.0012365393376606157
-0.19921875,0.0011670132871289293
-0.203125,0.0010934056707810776
-0.201171875,0.0011226823336257575
-0.20333286727859423,0.0010910771147872866
-0.205078125,0.0010785261557961976
-0.20703125,0.0010771039409550429
-0.20902679525494022,0.0010910771147872866
-0.2109375,0.0011403893734314766
-0.208984375,0.0010897914565669118
-0.21484375,0.0013624283646529003
-0.212890625,0.0012450301455118173
-0.21875,0.0015687616473245136
-0.216796875,0.00146684141672911
-0.220703125,0.0016667691216036827
-0.22265625,0.0017711144858580945
-0.2265625,0.001968133713706455
-0.224609375,0.0018789538651904376
-0.23046875,0.002034573217694564
-0.228515625,0.0020237985559526813
-0.232421875,0.0020093532454166473
-0.234375,0.0019775966377807742
-0.23828125,0.0019551373709611637
-0.236328125,0.001961973796190957
-0.240234375,0.0019937374032191185
-0.2421875,0.0020647398047353186
-0.24609375,0.002026630933708259
-0.244140625,0.0019552776629493986
-0.25,0.0019332125551589853
-0.248046875,0.0019146534045989727
-0.25390625,0.0013460932988257036
-0.251953125,0.0015978943711374128
-0.25526940886584293,0.0013503753684557674
-0.2576114383125975,0.0010910771147872866
-0.2578125,0.0010640284810874293
-0.26171875,4.3951425834486406E-4
-0.265625,-3.0946867454560106E-5
-0.26953125,-9.902934851264498E-5
-0.2734375,1.296732980954864E-4
-0.27734375,3.508449031641456E-4
-0.28125,3.2065159781081455E-4
-0.28515625,2.6867158232608194E-4
-0.2890625,2.468544461405914E-4
-0.29296875,2.8247898294732896E-4
-0.296875,4.58698251169965E-4
-0.30078125,5.818803657080947E-4
-0.3046875,5.735895172291791E-4
-0.30859375,5.844184219842496E-4
-0.3125,6.109618870686096E-4
-0.31640624999999994,6.840518027273247E-4
-0.3203125,7.771909075777956E-4
-0.328125,0.0010910771147872866
-0.3359375,9.363892256204736E-4
-0.34375,4.979221434653991E-4
-0.3515625,4.311783906735247E-4
-0.359375,3.569219405927123E-4
-0.3671875,2.759011586104627E-4
-0.375,2.0100835978707147E-4
-0.38281249999999994,1.381504308120775E-4
-0.390625,8.072949496866402E-5
-0.3984375,2.455631983652555E-5
-0.40625,-2.8543976124111026E-5
-0.4140625,-7.907059529685054E-5
-0.421875,-1.2363072821319678E-4
-0.4296875,-1.5602450513979473E-4
-0.4375,-2.0110260934899052E-4
-0.4453125,-2.4534076654154663E-4
-0.453125,-2.83329646359071E-4
-0.4609375,-3.113957485161446E-4
-0.46875,-3.417784375490434E-4
-0.4765625,-2.780191313700042E-4
-0.484375,-2.8628750102516643E-4
-0.4921875,2.807187013197516E-4
