"Plane Section: Position[X] (m)","Plane Section: Position[Y] (m)"
3.5,0.0016050880617840975
3.2700000000000005,0.0016258533352086282
3.04,0.0016899697700979161
2.8100000000000005,0.0017807372392727445
2.58,0.0019295514071700412
2.3499999999999996,0.00216754375613135
2.1200000000000006,0.0024742163029676262
1.8900000000000001,0.0028777413006095204
1.6600000000000006,0.003522884309647566
1.5671929729053335,0.003999999999999939
1.4300000000000002,0.004708213239151941
1.2000000000000006,0.005951484617009279
1.1760000000000002,0.006539079565071399
1.1520000000000004,0.00697711676828111
1.1280000000000001,0.00755601495595854
1.104,0.008020400348032426
1.0800000000000005,0.008454094103836584
1.0560000000000007,0.008753318184045528
1.0320000000000005,0.00908329971935088
1.0080000000000005,0.009513735801903823
0.9840000000000004,0.009953848095786014
0.9600000000000004,0.010485064910538848
0.9360000000000004,0.011084005224419647
0.9120000000000004,0.011731434405685914
0.9037648272884428,0.011999999999999861
0.8880000000000003,0.012511768634529644
0.8640000000000008,0.013366467554139061
0.8400000000000003,0.014311141437662076
0.8160000000000002,0.015356828434206361
0.7920000000000003,0.016520044405422984
0.7680000000000002,0.01776688852004534
0.7440000000000004,0.01915657201632181
0.7316004174123394,0.0199999999999995
0.7200000000000004,0.020798019878946507
0.6960000000000004,0.022518308967053563
0.6720000000000006,0.02468856398437134
0.6480000000000007,0.027343785880249705
0.6433578453599935,0.027999999999998713
0.6240000000000008,0.03059136654516381
0.6000000000000008,0.03422831005865824
0.5912554051736019,0.03599999999999814
0.5760000000000008,0.039015150345051305
0.5524550225831935,0.043999999999997416
0.5520000000000009,0.04411160783731548
0.5280000000000005,0.04994024841702542
0.5214081249530511,0.05199999999999662
0.5040000000000002,0.05892252974338632
0.501467968082379,0.05999999999999598
0.4894263457063734,0.0679999999999952
0.48257528881159806,0.07599999999999435
0.4800000000000004,0.078655899346806
0.4747822620285995,0.08399999999999377
0.46932523303348084,0.09199999999999285
0.46870233097720215,0.09999999999999236
0.46828534679057365,0.12166666666665929
0.46519105737518873,0.14333333333332593
0.45599999999999763,0.15252286501492673
0.4439375689791307,0.14333333333332565
-0.5216295524928674,0.05199999999999516
-0.5279999999999998,0.04998472279271751
-0.5022580659634266,0.05999999999999445
-0.504,0.05924359318207573
-0.5912793088105137,0.035999999999996854
-0.6,0.03422629465035882
-0.5523882515960252,0.043999999999995903
-0.5759999999999998,0.039027227635109595
-0.5519999999999998,0.04409475930184567
-0.4897475549917314,0.06799999999999363
-0.6431290881891669,0.027999999999997832
-0.648,0.02731554570930045
-0.6240000000000001,0.03055495410283634
-0.48027282187091513,0.07599999999999316
-0.47191746463817336,0.08399999999999216
-0.4800000000000001,0.07624040776423419
-0.6719999999999999,0.02472592189840245
-0.46812640310186565,0.09199999999999144
-0.696,0.022549922407999884
-0.4679829165049831,0.09999999999999087
-0.7304660660220127,0.019999999999998522
-0.744,0.019061550764585586
-0.72,0.02073937068944484
-0.4678036127403601,0.12166666666665749
-0.768,0.017699688436023736
-0.4650387945507526,0.14333333333332454
-0.45600000000000607,0.15274887181505045
-0.4423936157318703,0.1433333333333242
-0.7919999999999999,0.0164734891011191
-0.8160000000000001,0.015324112060713073
-0.8400000000000002,0.014295328334175846
-0.8640000000000002,0.013350549149358602
-0.9024181385646225,0.011999999999999275
-0.9120000000000001,0.01167567196844411
-0.8880000000000003,0.01248795419876005
-0.9360000000000002,0.010994466889342504
-0.9600000000000002,0.010411795278485075
-0.9840000000000002,0.009874652833000621
-1.008,0.009395661543138038
-1.032,0.008957374970120363
-1.056,0.008603181427392095
-1.08,0.008302563485711812
-1.104,0.007948855306044698
-1.1280000000000001,0.007617906859279076
-1.1520000000000001,0.007167068578163939
-1.1760000000000002,0.006789734285573925
-1.2000000000000002,0.006107671506688083
-1.5688323443004637,0.00400000000000013
-1.6600000000000001,0.0035236830411250223
-1.4300000000000002,0.004728325956894102
-1.89,0.0028928165543748883
-2.12,0.0024717037255534355
-2.35,0.0021560967229083466
-2.58,0.0019402521540697881
-2.8100000000000005,0.0017926862027857423
-3.04,0.0016846758255016003
-3.2699999999999996,0.0016243332601941216
-3.5,0.0016137401302486723
-0.30167846627339123,-0.06209820045533281
-0.30001160742485844,-0.06270494624088783
-0.35907199519209254,-0.011715477281069215
-0.35655798401966593,-0.01562215205395228
-0.29443137023408017,-0.06473762327053015
-0.29621337720925156,-0.06408870969670671
-0.29232477646344707,-0.06550474269081487
-0.2903186650592119,-0.06623528504255871
-0.28841920194607784,-0.0669270077078292
-0.28646620213418106,-0.06763821775426043
-0.2845250801037531,-0.06834509635019816
-0.2825601892006981,-0.06906062663336372
-0.2806071808779312,-0.06977182648346084
-0.30331278144069557,-0.06150186812540039
-0.2981126178110539,-0.06339698309485317
-0.3554993852971257,-0.016800906589466674
-0.35311261787812526,-0.01952898416997261
-0.34926941478766055,-0.023435883496580927
-0.3515938593673597,-0.021087196442268537
-0.3472580577610766,-0.025389348323178396
-0.34768826847291484,-0.024988943466182047
-0.35940469730837066,-0.01124837735404265
-0.27873569094000716,-0.07045333956154323
-0.30337989350809025,-0.0614775471482021
-0.34573543058300044,-0.02668858766547922
-0.3450942964708322,-0.027342838896963262
-0.34333600259567626,-0.029296260971061958
-0.34378266266420593,-0.028802409114245538
-0.3617886552645701,-0.007808768272672429
-0.2610771518074898,-0.07688397370212137
-0.25912414594554517,-0.07759518030974155
-0.2572555841206216,-0.0782756487129046
-0.2767011618220676,-0.07119421956484455
-0.2747481538825466,-0.07190542046733489
-0.27295544064536714,-0.07255831120431988
-0.270842149200369,-0.07332785301933392
-0.26883821100341637,-0.07405763245999852
-0.2649831518128282,-0.07546152830735567
-0.2630447231256875,-0.07616746106907259
-0.3034987201785956,-0.061436874048887646
-0.34182991682284225,-0.031046912592004153
-0.34164443763272956,-0.03124967177197852
-0.3633100912189997,-0.006180631943606355
-0.36542821551846383,-0.003901903349487355
-0.25521814544513777,-0.07901762434503096
-0.25326514139630407,-0.0797288359315135
-0.25147591950246434,-0.08038047087676906
-0.2669361495952809,-0.07475029951318495
-0.30357193020598855,-0.061414362770522535
-0.3399572814104953,-0.033203081828082105
-0.33819190426151724,-0.03515650509883092
-0.3398771703230771,-0.03328751881898742
-0.3672156300370991,-0.0019706314774834335
-0.36904381259470487,4.957525357583054E-6
-0.23577556617590406,-0.08609815866022881
-0.23764118944731982,-0.08541874951881255
-0.24935913737294688,-0.08115127029257607
-0.2473577674854408,-0.081880129759
-0.23959418003796304,-0.08470750097569581
-0.3036637085544016,-0.06138677233119389
-0.3379244090085334,-0.035440432513103234
-0.33634623594638136,-0.03710994193397451
-0.3342102644556871,-0.03906342781294262
-0.33597162920991674,-0.03748393422011748
-0.37112115198236484,0.0023392437006289125
-0.37253494040446833,0.0039117973723556115
-0.23178221690024017,-0.08755249301955904
-0.23373519614574872,-0.08684121332231404
-0.22999654501886485,-0.0882029176665215
-0.22787624357743913,-0.08897501168546632
-0.22587742977327913,-0.08970290593553777
-0.24545315155586792,-0.08257375464879532
-0.24350015684710308,-0.08328499188341552
-0.24156442365092254,-0.0839899630391683
-0.3037266818737712,-0.061372659794830794
-0.33401880241951265,-0.03924927930785131
-0.3320659530985646,-0.040881260256103
-0.33191931628336335,-0.041016939873685404
-0.3748798285436977,0.007818443573585503
-0.21615788516315748,-0.0932427756679677
-0.2161583391370991,-0.09324261032377441
-0.22397026437215478,-0.09039751419787673
-0.22201729551634963,-0.09110882242558958
-0.22008425303073761,-0.09181279764319339
-0.21811131247532625,-0.09253131440492975
-0.30377087626246324,-0.06137003283282222
-0.3301130893771575,-0.04242800116320022
-0.3294866997424119,-0.04297047586788333
-0.3273257417210411,-0.04492396596808053
-0.3281602498094882,-0.04411771428957839
-0.3750264382868669,0.008043937795738766
-0.21429580274333096,-0.09392132276795429
-0.3038744397870926,-0.061351055209839266
-0.3262074419856218,-0.04599532721499097
-0.32529066979645543,-0.0468774348010772
-0.32323259428539,-0.04883090752029813
-0.3242546333176013,-0.04786794334874179
-0.37733097360764206,0.01172510772586219
-0.21029962228218652,-0.09537705596386571
-0.2085177724399661,-0.09602689614779554
-0.20639411245948613,-0.09680084741668768
-0.20439795438938524,-0.09752803816958278
-0.21225255249810165,-0.09466564162970056
-0.30403235390504035,-0.06131849599799851
-0.3211048885393553,-0.05078439200285341
-0.3223018186172707,-0.049704852736296254
-0.37893163832104737,0.01425928836679681
-0.379978320965796,0.015631805024560484
-0.20053588222731,-0.09893662933925355
-0.20248850762109377,-0.09822437795322247
-0.19905073335911916,-0.09947802370790443
-0.3041822826738338,-0.06130538539746577
-0.32034899203000033,-0.0514714001949917
-0.31840180003088386,-0.05273797369060111
-0.31562005884632827,-0.05469156866592878
-0.3164431652462105,-0.053976856882708014
-0.3828368764142869,0.020249357477148424
-0.1833790664214373,-0.10519326375265697
-0.18491451945486187,-0.10463365289287942
-0.18881984777955707,-0.10320936304038222
-0.19077273237667172,-0.10249782343544371
-0.1870416501952354,-0.10385802547127337
-0.19860584871225465,-0.09964046079625871
-0.1946783075131573,-0.10107421133646456
-0.19281883674275463,-0.10175212242946044
-0.30459893783007136,-0.06119863704661074
-0.3056813176385352,-0.060699365338347605
-0.30563068742233224,-0.06076533904085423
-0.31839608164698563,-0.05274193887575412
-0.31449032268296806,-0.055648838457954236
-0.31309106493105665,-0.056645120942123026
-0.38573577366288603,0.02344527780030698
-0.18292108021214665,-0.10536030121619909
-0.1966308342027737,-0.10036168890545676
-0.3057851506518172,-0.060635224844876504
-0.306678579166237,-0.06012731944893607
-0.306251220392962,-0.06055252652145389
-0.312537434442648,-0.05705044552110784
-0.39064767889651586,0.03029806630360905
-0.40472876175011674,0.0625109870337791
-0.40201522006658197,0.054698028496467516
-0.17712898191345444,-0.10747232366457302
-0.17905631790924764,-0.10676951358971495
-0.17319865776591506,-0.10890686099551128
-0.17515137923597393,-0.10819487343818296
-0.17134192248075708,-0.10958301625515142
-0.18100905304409884,-0.10605756355637182
-0.31058449477160066,-0.05814762072872315
-0.3099317484296824,-0.058598779705037414
-0.3086315935136904,-0.05947217328081028
-0.391404339180639,0.03125873555944987
-0.3950891628269516,0.039071858185163705
-0.39845751586753386,0.046061886934080996
-0.39891545728794187,0.046885004710958314
-0.406266864621305,0.06471559237944124
-0.4371227777198955,0.1406414607947985
-0.4375039197170817,0.14134248492170776
-0.4469979472865542,0.1562681293292629
-0.4531252767618726,0.1629074034734386
-0.1692926007696231,-0.11032914989117346
-0.16723795308043868,-0.11107722334986805
-0.16144262795731423,-0.11318821834796904
-0.16343372075100598,-0.11246314747823623
-0.41007592456448017,0.07032439049514061
-0.4347630740583065,0.12501606192342102
-0.46837765190736375,0.15627174121736825
-0.1517156591641286,-0.1167303145868176
-0.14986214179315444,-0.11740598916800522
-0.15952772734853155,-0.11388561100466917
-0.15757476590385655,-0.11459693958360671
-0.1556498233594943,-0.1152978703178038
-0.16547441214824476,-0.11171970883021927
-0.41407739920432624,0.07635006627798561
-0.4157019656776654,0.0781378410702089
-0.4217944984299987,0.09376387056586562
-0.42188692659227955,0.09394638948147588
-0.42917527069116257,0.10939011769675738
-0.46827913755120804,0.14064672435140477
-0.14575901230296,-0.11890403658871608
-0.14781038290096377,-0.11815474740204635
-0.15366867682302118,-0.1160191403740394
-0.4684072667918248,0.12502174577461156
-0.14504105524326136,-0.11916682585123761
-0.14195576641398372,-0.12030045279101709
-0.14399709864635676,-0.1195517082167646
-0.1399682736118348,-0.1210273757370981
-0.46829083311257513,0.10939672588134836
-0.13805154930950841,-0.12172779409178114
-0.13667131280694692,-0.12223326221566344
-0.1302369263761762,-0.12460416523048498
-0.1302493377285896,-0.12459956424010388
-0.4687602389748119,0.10393979505589478
-0.13610036647935467,-0.12244400680627487
-0.1341812015594508,-0.12315232764055806
-0.132198970012471,-0.12387909367315578
-0.12840694059454633,-0.12529640679593412
-0.46967134080752304,0.09377195888142424
-0.12635227384567999,-0.1260465485289763
-0.10691663870911469,-0.13309038349262442
-0.10876438758665795,-0.13241765883622886
-0.47886228640507467,0.07814851137717199
-0.48356826404794656,0.07033680629373941
-0.11071906719343533,-0.13171104838847633
-0.11086647038177076,-0.13165814082510904
-0.12430420365615186,-0.12679710968942126
-0.12049552069338726,-0.1281863865627779
-0.11849600877353358,-0.12891024960795366
-0.09700956286259249,-0.13667818514333288
-0.09899252408825857,-0.13595492496126263
-0.10485762567879217,-0.13383801202089976
-0.10280732900485305,-0.13457466018726438
-0.10104031804766944,-0.13520979584973608
-0.484391126091375,0.06909374125225394
-0.11463119382330808,-0.13030542691167757
-0.11658654647371207,-0.1296006646644618
-0.11270983985813762,-0.13099923683076037
-0.12254132319217409,-0.12744285270751582
-0.0950888743190359,-0.13738382418379746
-0.09313539062000115,-0.1380937186346171
-0.4922044412861448,0.06426905135349435
-0.09121932098196237,-0.1387935148174524
-0.08922962921323617,-0.1395168192291175
-0.08727528952242714,-0.1402243630975964
-0.08543009101066507,-0.14089461409563547
-0.08336982859176503,-0.1416482888096255
-0.08132507243338657,-0.14239234433999068
-0.07751147684605392,-0.14378373705192524
-0.07553052783233624,-0.14450444922891373
-0.07956111498106408,-0.14303660915554567
-0.0736060696380712,-0.1452078102882407
-0.07165889507128197,-0.14593502982935563
-0.07159585514560021,-0.1459589895785743
-0.06428731450853833,-0.14866209934538122
-0.06581198327733134,-0.14810189256569206
0.2961448973825237,-0.06421057377942023
0.29436229470362385,-0.06486003705163065
-0.06975509665914251,-0.14665997287295857
-0.0677649545365504,-0.14739059093782886
-0.063972497762152,-0.14877829732246634
-0.003458497957569565,-0.17069971766112524
-0.0033994124765801066,-0.1707211925210621
-0.007202698042684022,-0.1693401226759254
-0.005324742414351328,-0.1700219088816326
-0.0031820669584838495,-0.17080038320673416
-0.008087539551542509,-0.16901947946795953
0.016759059440170174,-0.16583007116665854
0.01879714302814832,-0.1650911716287967
0.27917613343757736,-0.07040392662018495
0.2805418318821453,-0.06990462932444763
0.29804797788668747,-0.06351766483807576
0.29296043370125824,-0.06537099310285924
-0.06192592801007284,-0.1495791068850347
0.012936584122241308,-0.16721998627369367
0.014993328525557709,-0.16647168419039649
0.009033538529469795,-0.1686367459055855
0.009298369026894827,-0.16854072363404934
0.010964131849791827,-0.1679369665999
0.007092081990279298,-0.16934098125785135
0.005213549415040589,-0.17002326190355288
-0.00164556300189405,-0.1713605512237
-7.495584453210561E-5,-0.1719373545006226
-0.010939228691213481,-0.16798922515066805
-0.009146162839004726,-0.16863708983135048
0.022706832708712158,-0.16367886831841885
0.02438601157164748,-0.16307270787554706
0.02007704865031014,-0.16462788739519008
0.02086960386292265,-0.16434221578746053
0.2766407593998389,-0.07134062081885836
0.27469032854131387,-0.07205890625468374
0.2742110771295591,-0.07223785283237401
0.29994885049389775,-0.06282407120207296
0.2922560782798144,-0.06562856305645728
0.2902505657733292,-0.06636062259634451
0.28639928701951883,-0.06776671643959663
0.28835126830465674,-0.06705272169414321
0.28445901482012653,-0.06847592974328495
0.28249420694641997,-0.06919168835895492
0.2786718030675742,-0.07059015923868465
-0.06181375088993454,-0.14962530638875352
-0.019705490266589437,-0.1648092215051214
-0.0189124003785017,-0.1650954933326607
-0.022822043727762573,-0.16368305325730134
-0.020985451024219944,-0.16434815255787116
-0.01687368667878158,-0.16583266391360202
-0.02718205318363398,-0.1621050424917178
-0.026775159882031684,-0.1622514208736705
-0.02477595372507692,-0.16297432943596196
-0.030661151494707675,-0.16086583537558508
-0.03064605604485823,-0.1608711486670603
-0.03352365704215842,-0.1598650410330581
-0.03258471878215341,-0.16019060438292818
0.003287753470701116,-0.17072304476738237
0.0015331517382683477,-0.17136441671511587
1.81890829904836E-4,-0.17185710627954906
-5.684012500905854E-5,-0.17194411745717267
-0.015108445948579902,-0.1664756596271705
-0.013052011634861884,-0.16722503574368755
-0.011078177928159188,-0.1679392598190992
0.02666261134094925,-0.16225456155196585
0.02820216073697199,-0.1617029688062946
0.02466208637270728,-0.16297384039958485
0.08533404584972792,-0.14094311370615786
0.0871791534210172,-0.14027261397026225
0.2024344933097259,-0.09838835723632915
0.20048010489232646,-0.09909576365073378
0.1985505381300237,-0.09980087943475699
0.2746943921338625,-0.07207007675444381
0.2763697660991826,-0.0714941823210041
0.3016282326525783,-0.062212969437329506
-0.06059737316162112,-0.15016190977005658
-0.028687875732077373,-0.1615681460578507
-0.034575098923447734,-0.15951197978075876
0.028574732806209827,-0.16156966479654655
0.08861192191654435,-0.13975491414022287
0.08327327303205166,-0.14169538890332237
0.08122844750578259,-0.14243925358433845
0.07543297313681449,-0.14454880545840196
0.07741403369004267,-0.14382840016820683
0.19073148755850816,-0.1026969136545409
0.188779400004654,-0.10341064496382814
0.18822724143242686,-0.1036209978238503
0.19776816260029706,-0.10008778920589935
0.19464090386255092,-0.10128385867692265
0.19278025148229921,-0.10195852265570032
0.20303407423411396,-0.09817216152853134
0.20462312075518221,-0.09765652245671003
0.20436244419157895,-0.09774288255999268
0.20170506766112056,-0.0987180486766199
0.2004986778240698,-0.09914681919508286
0.19856133023350636,-0.09983054608758088
0.2766604450889253,-0.07139473524657165
0.30330547605922176,-0.06159104369094687
0.27870494670967516,-0.07068126853217634
0.2805805539698313,-0.0700110733308405
-0.05993654049568243,-0.1504673912603961
-0.05219063916082019,-0.1532168082323088
-0.05253267340525736,-0.15309876346496973
-0.05023283913800965,-0.15391484991219767
-0.04832285692524253,-0.15461423529112422
-0.035673774590653684,-0.1591444811006069
0.0305317416527601,-0.1608694617380052
0.07350679155510165,-0.14524743176752286
0.07262920807573886,-0.14556908861217216
0.06765745195064739,-0.14740765664072247
0.06570765778272676,-0.1481276922895034
0.06565362087199395,-0.14814827527486193
0.10271760899916861,-0.13464055165604405
0.10476605629899033,-0.1338988286190156
0.09112457921658813,-0.13884560294106266
0.09304167624164689,-0.13814862873264716
0.0891339212607978,-0.1395662505584676
0.07946364722419057,-0.14308120360522028
0.10682656491254923,-0.13315531299604283
0.10819450975955028,-0.13267279641390564
0.12045193602641945,-0.12827622561841684
0.12041873412685722,-0.12828787721011387
0.11841855492182529,-0.1290099023183117
0.1633838369582067,-0.112638503515367
0.161395325578331,-0.11337067083664068
0.16542335593987506,-0.1118918413494683
0.18949650964330345,-0.10325289864450697
0.1887995204030409,-0.10346595437358509
0.19702502672633893,-0.1004068379523621
0.1955418455309071,-0.10096009900244961
0.17190708285785872,-0.10955792757855845
0.17129736728425687,-0.10977301853474838
0.1692436781633821,-0.11050714672548828
0.16718596634175503,-0.11124679734802474
0.18289846737969112,-0.10561061368880655
0.18486084597135646,-0.10493925539533154
0.1771015454984525,-0.10770938007923005
0.17902925385342908,-0.10700759236752301
0.20271343656539054,-0.09834269490221567
0.20436621881850212,-0.09775325871573003
0.20245597092230927,-0.098447397522318
0.2591422148796688,-0.07795729642124741
0.26108828965645026,-0.07722703645559417
