"Plane Section: Position[X] (m)","Plane Section: Position[Y] (m)"
3.5,5.070158997984753E-5
3.2700000000000005,5.2042547179691504E-5
3.04,5.341833132191799E-5
2.8100000000000005,5.522706263536275E-5
2.58,5.881814244365581E-5
2.35,6.638080887174259E-5
2.1200000000000006,7.570618512159908E-5
1.8900000000000001,8.577998986693367E-5
1.6600000000000001,1.0195005693618717E-4
1.4300000000000002,1.2357839154105463E-4
1.2000000000000006,1.4209844415700177E-4
1.1760000000000002,1.4989054518443543E-4
1.1520000000000001,1.5259191318101148E-4
1.1280000000000001,1.595856498418384E-4
1.104,1.658256473029612E-4
1.0800000000000005,1.7070319232741443E-4
1.0560000000000003,1.7593330325762124E-4
1.032,1.7862902422397344E-4
1.008,1.831972396590854E-4
0.984,1.9019155176740643E-4
0.96,1.9338054425675853E-4
0.9359999999999999,1.9702562464799964E-4
0.9120000000000001,2.058456118968025E-4
0.8880000000000001,2.121690238163134E-4
0.8640000000000002,2.1621950243744942E-4
0.8400000000000003,2.2352373623227815E-4
0.8160000000000003,2.3125597602107286E-4
0.7920000000000005,2.409237308232566E-4
0.7680000000000007,2.4959716252488727E-4
0.7440000000000007,2.586506582841168E-4
0.7200000000000006,2.6957026270156873E-4
0.6960000000000007,2.847231994221903E-4
0.6720000000000006,3.016150886828485E-4
0.6480000000000006,3.246246469086097E-4
0.6240000000000006,3.5691659411576633E-4
0.6000000000000005,4.083453945084235E-4
0.5760000000000005,5.073039503626967E-4
0.5520000000000005,7.35735156014309E-4
0.5280000000000005,0.0011781052928710517
0.5040000000000004,0.001706499357922578
0.4800000000000003,0.0024268376980141433
0.45600000000000035,0.0012379894936891162
-0.48000000000000015,0.0024403697588098574
-0.4559999999999999,0.0012332301313139928
-0.5040000000000002,0.0017431318030948465
-0.528,0.0012111617444375627
-0.5519999999999998,7.66177032587169E-4
-0.5759999999999998,5.255566363667433E-4
-0.6,4.1423691255578713E-4
-0.624,3.636018003287815E-4
-0.6479999999999999,3.2856577434857057E-4
-0.6719999999999999,3.0348460944593016E-4
-0.696,2.855661526975018E-4
-0.72,2.706464118859051E-4
-0.744,2.5936705315772425E-4
-0.768,2.4865249174647495E-4
-0.7919999999999998,2.4009073713229627E-4
-0.8160000000000001,2.310343071033888E-4
-0.84,2.2357070797345013E-4
-0.864,2.1695463088531068E-4
-0.888,2.1057910014603666E-4
-0.9119999999999999,2.0399102362739566E-4
-0.936,1.9847528362019996E-4
-0.96,1.9330045299059044E-4
-0.984,1.885239272171646E-4
-1.008,1.8370207519272607E-4
-1.032,1.7973641248027292E-4
-1.056,1.7532974253083153E-4
-1.08,1.6915000089001958E-4
-1.104,1.629534387888634E-4
-1.128,1.5629339886852887E-4
-1.1520000000000001,1.5944030212784602E-4
-1.1760000000000002,1.5560073257422035E-4
-1.2000000000000002,1.3981624182854023E-4
-1.4300000000000002,1.2249477059258032E-4
-1.6599999999999997,1.0156368055630439E-4
-1.89,8.64614273998819E-5
-2.12,7.541507491452934E-5
-2.3499999999999996,6.690525361150324E-5
-2.58,5.896490534434127E-5
-2.81,5.466987485348309E-5
-3.0400000000000005,5.365443207971249E-5
-3.2699999999999996,5.224310280724535E-5
-3.5,5.1036095872233076E-5
-0.12430724625782358,-0.0013727792180568978
-0.12538645466713993,-9.892389302788864E-4
-0.12049106695242753,-0.002741461713310864
-0.11849109114380707,-0.0034640484454956976
-0.126379086282754,-6.875214429807534E-4
-0.12700977474072464,-5.388448166319328E-4
-0.10692511671937696,-0.007680969913265828
-0.10877062899562381,-0.00700210038171124
-0.11462897668676153,-0.0048666398475029245
-0.11658233435523246,-0.00415639972004932
-0.11270949961533962,-0.005565603842195099
-0.11072316358626846,-0.006289598919070325
-0.12253917727681414,-0.002004268978018075
-0.12643116863264048,-8.306131972823552E-4
-0.09901128510413476,-0.010573754004243204
-0.09702976109188301,-0.011300963392976862
-0.10486620973633207,-0.008428888911494918
-0.10282029721484859,-0.009177577808468389
-0.1010573456945755,-0.009823862793853234
-0.12539980958985986,-0.001335527487882277
-0.0951088443337513,-0.012005978261277563
-0.09372926566048617,-0.012511780835446256
-0.12447054070970985,-0.0018214166094021125
-0.14153429390134453,0.003035916871816597
-0.1405533533160954,0.0027978877922634113
-0.12881101899921552,-9.738844137668035E-4
-0.13067942650154524,-3.484915259141607E-4
-0.09315809726707253,-0.012723390791508101
-0.06394601215956394,-0.023272847856438704
-0.06578762622274233,-0.022602288127547034
-0.14258022993324113,0.0031279871358992736
-0.14455660289822694,0.002912916040833852
-0.12352722272171912,-0.002333143704867229
-0.12457200641718497,-0.0021001848699705693
-0.12667012962236124,-0.0016632443734594243
-0.12672748954949373,-0.0016447293022804515
-0.13860967476785685,0.0021715227464702293
-0.13662203379128834,0.0015554730445497547
-0.1346600762960907,9.647168483801778E-4
-0.13265691923974154,2.954395837181788E-4
-0.09124484939480348,-0.013430940513426306
-0.0873095102431519,-0.014885667915173772
-0.08925903827068356,-0.014164906180273822
-0.0854692778078503,-0.015569562099953197
-0.08340746494341174,-0.01631897869361982
-0.08136338539158883,-0.01706489297382666
-0.0775489852018176,-0.01845407643061432
-0.07556548023095677,-0.019167766117942173
-0.0716712694604636,-0.020536324921027072
-0.07179670863997925,-0.020494764015128526
-0.06974077905628773,-0.02118794814354967
-0.0677427962953323,-0.021897027423742343
-0.06187983507530161,-0.024019812686096275
-0.14562685834805864,0.002478924317640346
-0.079599200589514,-0.01770853407976314
-0.05983695377113081,-0.0247612002589178
-0.07363473473771487,-0.01985385457498858
-0.04432201906975425,-0.03047352416855615
-0.042488943187774936,-0.0311579437999231
-0.1484396206588748,0.0010196789821825998
-0.14648648785369703,0.002066109060372137
-0.14920502917144343,5.258260064857163E-4
-0.058071730903010516,-0.025402743004157687
-0.05601942261649913,-0.02614960044961967
-0.054042076926478055,-0.02687212108678241
-0.0521159662031033,-0.027579034315273372
-0.05016766935169681,-0.028303178600153068
-0.04826203391946267,-0.0290145081653735
-0.04627026068065186,-0.02974922811514736
-0.04175795569796722,-0.0314282296958734
0.0052799778881427555,-0.0444770183766402
0.0054440161406794025,-0.044418591024907826
-0.001799903497045965,-0.04574667955427189
-0.0015984841296533977,-0.04581798598098062
-2.4742562173204326E-6,-0.04638753219719375
0.01768138014846479,-0.04003402062919742
0.016844588290136103,-0.040333595616079555
-0.15039275263395804,8.453942634689178E-5
-0.15234588429778825,-8.08870481383695E-4
-0.018607166879316604,-0.039698556853113964
-0.01684589788941153,-0.04032359310144214
-0.0345807122261415,-0.03409473302100622
-0.03260881900772869,-0.0348241284322965
-0.04042606376182496,-0.031923566673082354
-0.03839172692144629,-0.0326806022245926
0.007165245840928823,-0.04381207658319889
0.0076722451828285495,-0.04363534579190796
0.003350846856874078,-0.0451708463262417
0.0015918993465596685,-0.045806531334862774
-0.004387023642929022,-0.04483276811713
-0.003361874639503935,-0.04519620028156578
-0.006850945601814968,-0.04397757076551793
-0.00529590966603934,-0.044515265125633585
-0.015083200063023572,-0.04097357678821152
-0.014488079744979829,-0.04119781675345351
0.0442525948709053,-0.03042554005848234
0.04429406212649241,-0.030410316453157685
0.01634192057913998,-0.04052153272859801
0.018891833782654834,-0.03961986735600168
0.06772970096762053,-0.02187465047509349
0.06577398169315612,-0.02257840196338588
0.06393542263357667,-0.02325735545112128
0.059826819841054334,-0.024746959326058037
0.06186907774851862,-0.02400385903371859
0.05806252659225376,-0.025391056199798506
0.05601103282711019,-0.02614015157119503
0.054033421103962975,-0.02686194138722996
0.05210607461218657,-0.02756545953170525
0.05015339001627028,-0.028277548923981086
0.04938698383694684,-0.028556818673312084
0.04536652959115898,-0.03002011038667813
-0.15349896169126082,-0.0014272669659415632
-0.019413275058018167,-0.0394675772337789
-0.01889468788562656,-0.03961410829125794
-0.0366316125846589,-0.03333694320774165
-0.030683501980964496,-0.03554132769391638
0.013035411766593907,-0.04176008746002675
0.015085164793405024,-0.04099254291267098
0.009452305940221903,-0.0430290891834932
0.009119854201365952,-0.04314312650691328
0.011062617244146712,-0.04247630979787123
-0.007188668396167891,-0.04387156567201572
-0.01303620983640344,-0.0417489156821018
-0.01107162067633681,-0.042488659192435246
-0.009142879552799148,-0.04319616897609199
0.042459850377312605,-0.03109161594910791
0.040394917880953986,-0.0318515985334152
0.03836030213021853,-0.03260786844754125
0.019296062169794927,-0.03950876430833347
0.068639218759705,-0.02154974083981724
0.04824235005200551,-0.028974030042298458
0.0462473058119833,-0.029699763182453907
-0.1562521466091794,-0.002459439718440725
-0.15429901602735296,-0.0017110936718102692
-0.15856326034415974,-0.0033803541923472643
-0.1582052773879217,-0.003234186283555912
-0.018930683262874327,-0.039713002512613546
-0.01883980764967608,-0.03976994700538919
-0.028736837620424057,-0.03626995710634263
-0.02683967369276415,-0.036995953678263326
-0.02676472292220124,-0.03702590657443654
0.036598330652938126,-0.033259107504853745
0.03454795338589427,-0.03401833499752876
0.03257983781215587,-0.03475811012169416
0.02682653153970141,-0.0369734567398907
0.02871729415368156,-0.03622987084120845
0.025858677457445904,-0.03735432148927695
0.01930506354330043,-0.03959912750175681
0.07307780131361367,-0.020027905748922215
0.07165954299430081,-0.020517711809738635
0.06973064366182007,-0.021173704476058965
0.07556547208560015,-0.019181351575403377
0.07756132636861507,-0.018501592468610197
-0.16211153565465491,-0.004342490057812718
-0.16015840678965715,-0.0038243180546778605
-0.1640646641984041,-0.004817592007253369
-0.02292129965841835,-0.038523033670851706
-0.021086354315054824,-0.03919265737652379
-0.018483047711617205,-0.04004025980606098
-0.024861098639534642,-0.03777554222190367
0.031174846806020978,-0.0352789799678971
0.03065463025557031,-0.03547561083099454
0.024846956520844482,-0.03775030027338329
0.022910367981353097,-0.03850661424200234
0.019327666919558655,-0.0397313597609457
0.02107937900300451,-0.03918710829516138
0.07362581712477118,-0.019842960221970407
0.08481351084279307,-0.01610770349071578
0.08348267775223367,-0.016539237037000422
0.08741307350697569,-0.01518381976224283
0.08556546317152688,-0.015847443441339284
0.08141767822183665,-0.017227672895683995
0.07895380416358835,-0.01802972427228093
-0.16645163452537626,-0.005333420354511556
-0.1660177923760458,-0.0052436099701710735
-0.019000940853830122,-0.039906029236408694
0.09137249876710854,-0.013795269015803814
0.09331755990094612,-0.013175127078681181
0.08937294666295001,-0.014491481234070177
0.07963081044896468,-0.01780899167015245
-0.17187717259556032,-0.00594336678784629
-0.16992404619194018,-0.00575519095821522
-0.1679709195060081,-0.00552916597377714
0.103092185185063,-0.009938206135175681
0.10516763909348578,-0.009270683247037389
0.09723923405847507,-0.011890104580608702
0.09819124264384743,-0.011554753115707514
0.09530387226154352,-0.012555431351451507
0.1072449040805979,-0.00857320367914105
0.1089523409151822,-0.008112173758262828
0.12089605035315999,-0.003867775019903961
0.12293987462977499,-0.0031188065307518114
0.11889471328004549,-0.004586621402893262
0.14050365383275687,0.002920762142048532
0.1425556696696783,0.0034704070241794137
0.14317972007166563,0.003634210531474452
-0.17578342428049837,-0.006169251598949224
-0.17383029863089447,-0.006082166343910137
0.10130310093950498,-0.010512690573658995
0.09923584309378895,-0.011204341666850371
0.12470486405509379,-0.0024788560582705583
0.12676094805883284,-0.0017503107887662747
0.13855546519715095,0.0023067920696323643
0.1365778444220186,0.0016632158542523908
0.13463389474315846,0.001022987498045498
0.13067801892049247,-3.58282822807782E-4
0.13263984947464916,3.28677673448039E-4
0.1288209170245789,-0.0010147360887855178
0.11502885107695371,-0.005978915591465762
0.11698392368413162,-0.0052733873582359245
0.11310234589640002,-0.006658569581147051
0.10914729526427408,-0.008050610989231948
0.14456575522090614,0.003160251252544325
-0.17968967474501363,-0.006231514451806317
-0.17773654961173302,-0.006213652856245695
-0.1855490499359435,-0.006257090757953033
-0.18359592495577975,-0.006259757473260182
-0.18164279984371695,-0.006244740524660172
-0.18750217473420233,-0.006230035641619417
0.11110690526194122,-0.007357549422788476
0.14532119355363426,0.0024767541912034353
-0.19140842407367759,-0.006141464704713896
-0.189455299425073,-0.006188583480464777
-0.19336154871997735,-0.006094037004151453
0.14648225940230236,0.001697144832454398
0.14787507027349445,5.236101422621624E-4
-0.19531467328887067,-0.006036231373313675
0.14843537429028014,3.4142248752448245E-4
-0.20312717348641945,-0.006062688191324525
-0.2011740477888396,-0.005969170999523732
-0.1992209225145344,-0.005932402287321032
-0.19726779778516287,-0.00596869262865124
-0.20703342441156344,-0.006186707370613387
-0.20508029910526115,-0.006145648812791185
0.15038849308022545,-4.911645304014199E-4
0.15234161222091058,-0.0012767280343223754
-0.21093967454897655,-0.006205116806369753
-0.20898654951667894,-0.006200793972020846
-0.2167990496102864,-0.006213314817072089
-0.21484592460744262,-0.006212940819287065
-0.21289279957684157,-0.006208845431143022
-0.2187521745405927,-0.006203963650202758
0.15272657497230868,-0.0014295510442458447
-0.22656467265353597,-0.005950937904894527
-0.2246115483993049,-0.006050929763359035
-0.22265842396629307,-0.006126952938725097
-0.22070529934078503,-0.0061771682191932
-0.230470920932699,-0.0057202114299583304
-0.22851779679411857,-0.005835708867082604
-0.2402365428972586,-0.005313215618936858
-0.23979609013171233,-0.00533287329210318
0.1542947335177269,-0.0017732195338958387
0.1562478554956673,-0.002178393235319819
-0.23437716956198013,-0.0055364257294538205
-0.23242404518114884,-0.005619444541802779
-0.23828341852441132,-0.005397304967951053
-0.2363302940220225,-0.005464026780962123
-0.24218966710262746,-0.005206672450264289
0.16193920466602285,-0.0033827447595579344
0.16015409945786216,-0.0029878942148024445
0.15820097753162835,-0.0025757882540906924
-0.2500021646946043,-0.004883803493824185
-0.24804903999335204,-0.004923860789360931
-0.24609591558289456,-0.005002907828900317
-0.24414279131001215,-0.0051003995381223325
-0.2578146639820956,-0.004788248508372115
-0.25586153922242366,-0.004820476600483724
-0.2539084144023007,-0.004844599963481919
-0.2519552895527952,-0.004864783930082589
-0.26172091336084746,-0.00470494346794175
-0.2597677886950785,-0.004749760969777281
-0.26367403797221445,-0.0046528323475887815
0.16210722127120403,-0.003415135105293306
0.16406034358537355,-0.0037752306129517346
0.16601346579391232,-0.004149488027551768
0.16796658800981185,-0.004522758652552322
-0.2656271633323095,-0.004701102821717732
-0.2851584165973756,-0.005138776779839512
-0.28906466649045764,-0.005124427743994068
-0.2812521663486993,-0.005105451419167401
0.16991971034182918,-0.004880461429514358
0.17187283272349962,-0.00523150711838885
-0.27734591598112424,-0.005056184931244651
-0.27343966502212846,-0.0049276271146104405
-0.26953341466367114,-0.00487958338045319
-0.26703341363083166,-0.004733628593258103
-0.29297091618908794,-0.005084008791638008
-0.29687716585975443,-0.005039840598758261
-0.30078341559825666,-0.005004767087627978
-0.3046896643817473,-0.0048416555482516995
-0.32422091033242784,-0.0042986931584525784
-0.3203146607757719,-0.004358145825711918
-0.31640841117219315,-0.004411308409323378
-0.31250216182249224,-0.004498508364085083
-0.3281271596252268,-0.004203864483542581
0.17240315045274715,-0.005335947808201194
-0.30859591282643095,-0.0046331207296528044
-0.33203340918085356,-0.004144272936054484
-0.33593965841085477,-0.004041024883056259
-0.3398459079633714,-0.0039810164141240376
-0.34375215803511094,-0.003990620443991575
0.17577907699017262,-0.006000186126904231
0.17773219888802716,-0.006416096895485208
0.17382595508430682,-0.005585349843407119
0.1796853217331313,-0.006705010285695442
-0.35156465617520305,-0.0037412350474785696
0.18554469584348177,-0.0068243068524443656
0.18749782126281828,-0.006768093886441189
0.1835915706204376,-0.006854203045169771
0.18163844578416127,-0.006832245403035796
-0.35937715529430625,-0.003623104308345587
0.1894509466234352,-0.006719753839926783
0.19140407188101838,-0.006685227091639453
-0.36718965540879134,-0.003638424575185514
0.19335719711384447,-0.006654019412405215
0.19531032230862838,-0.006627912100075252
-0.3750021553128623,-0.003625533364464888
0.1972634475070151,-0.0066013212508797625
0.19921657261068157,-0.0065874299867975765
0.20116969771034313,-0.006574075719443982
0.20312282276140475,-0.006567237211433752
-0.3828146540303998,-0.0034535649002221617
0.20507594758594033,-0.0065907686877063314
0.2070290723757992,-0.0066189495516736285
-0.3906271471737006,-0.002534260629326261
0.2089821973309395,-0.006624970008216017
0.21093532253263286,-0.006597936362576296
0.21288844791193726,-0.0065470903892381645
0.2148415734147118,-0.0064796908955114295
-0.3984396381954527,-0.0013305219920834663
-0.4062521338274148,-7.448720240020336E-4
-0.4296896373543667,-0.0012176440927241243
-0.43750213474088484,-8.67226215475244E-4
-0.42187713510104996,-9.155717505857171E-4
-0.4140646328407348,-6.12559075257214E-4
-0.44531462889906526,-8.398654883677364E-5
0.21679469901122453,-0.006399723886727817
-0.46282927681362634,5.281652703704659E-4
-0.46875211932392097,0.001199834745150666
-0.4531271258740913,3.215989522358587E-4
0.21874782463693893,-0.006315841903839586
-0.47656461020006924,0.002423094785393109
-0.48437710850764876,0.0026500258869903153
-0.46093962595591637,3.106576512480278E-4
-0.49218961647630377,0.0015817003979831745
0.22851345278437935,-0.005893901799583856
0.23046657849831692,-0.005798191689568388
0.22656032712723118,-0.0059819981286485125
0.22460720149533336,-0.006066709591719199
0.22265407587540162,-0.006149816326885245
0.220700950258154,-0.00623256322330349
0.23241970424494518,-0.005698098341130915
0.2343728299553855,-0.0056028571641981596
0.24086487501450218,-0.00533645845124231
0.24218533232778322,-0.005284819233305479
0.23827908124666503,-0.005429749857656351
0.24023220674852397,-0.0053624730608744925
0.23632595562560355,-0.005513008136900331
0.24609158348379517,-0.005129847745466783
0.24804470864572942,-0.005108144517115186
0.24413845801675788,-0.0051924559425550925
0.24999783361592925,-0.005112147221097232
0.259763459347533,-0.005014095112400363
0.2617165847311973,-0.004962664739186482
0.25781033400254166,-0.005060340760780425
0.25585720872434864,-0.005097630672174992
0.25390408354947613,-0.005121068471173791
0.25195095853571664,-0.005122905908158483
0.2636697103173661,-0.004884084532154741
0.26562283595326136,-0.004798837608767226
0.27343533594695707,-0.004799711917674741
0.2695290856596654,-0.004838214435975839
0.2667165856367273,-0.004826295833869196
0.277341585870782,-0.004809939134168716
0.28124783514156165,-0.0049077199053248945
0.2851540844248735,-0.005003820307085348
0.28906033426456046,-0.005025327993240021
0.29296658481557813,-0.004951467662972093
0.29687283563310196,-0.004841877069110902
0.30077908595568825,-0.00479864261766863
0.304685336799312,-0.00468555282453622
0.312497838663303,-0.004435676938491181
0.3085915879372688,-0.0045330015007959586
0.3203103394211327,-0.004334104404184811
0.31640408911350354,-0.00437533349997959
0.32421658978556506,-0.004285258670834915
0.3281228404594177,-0.0041949300164582795
0.3359353414618196,-0.004060567494325313
0.33202909076078174,-0.004154540789031188
0.34374784172940454,-0.004024721414876601
0.3398415921333455,-0.003970550694137549
0.35156034297107247,-0.0038582794245206353
0.35937284430311756,-0.0036797217462467124
0.36718534441741635,-0.003664426420325369
0.3749978445773646,-0.0036430113666822105
0.38281034598481867,-0.003454344637095046
0.39062285267793895,-0.0025570295179701322
0.39843536197641216,-0.0013104147171065514
0.4062478662671623,-7.351846447952186E-4
0.4218728645063585,-9.713106364019938E-4
0.4140603665650975,-6.952692647398387E-4
