"Plane Section: Position[X] (m)","Plane Section: Position[Y] (m)"
3.5,0.002132140492891831
3.27,0.002155540340150676
3.04,0.002237767673552632
2.8100000000000005,0.002357591006926573
2.58,0.0025484518939111905
2.3499999999999996,0.0028435201111022433
2.1200000000000006,0.0032264764139705755
1.8900000000000003,0.003790661599786912
1.83984376029295,0.003999999999999844
1.6600000000000006,0.004739478321818369
1.4300000000000004,0.006260522881885854
1.2000000000000006,0.007791160868245833
1.1760000000000002,0.008653922470223195
1.1520000000000006,0.009382060369523009
1.1280000000000001,0.010081322472921324
1.104,0.010558951616056248
1.0800000000000005,0.011092848022605748
1.056000000000001,0.011646729489866624
1.0405433590698552,0.011999999999999907
1.0320000000000005,0.012198778171435106
1.0080000000000005,0.012721421916638404
0.9840000000000005,0.013155091698413505
0.9600000000000004,0.013691499862545753
0.9360000000000005,0.014316416969398626
0.9120000000000005,0.01489021875261846
0.8880000000000003,0.015998983379146348
0.8640000000000005,0.01819230047148658
0.8468083887706128,0.019999999999999463
0.8400000000000004,0.02075526460530431
0.8160000000000003,0.022635071388697796
0.7920000000000007,0.02441563607331905
0.7680000000000007,0.02568850802002906
0.744000000000001,0.026890984052112366
0.7322267856576137,0.02799999999999918
0.7200000000000011,0.02916462286643775
0.6960000000000008,0.0315675914018769
0.6720000000000008,0.03437218630600054
0.6620080285051833,0.03599999999999835
0.6480000000000008,0.03826557144985526
0.624000000000001,0.042511006531552833
0.6176403176219842,0.04399999999999776
0.6000000000000008,0.04789771077689339
0.58412264311442,0.05199999999999694
0.5760000000000003,0.05424659929834556
0.5572649588053427,0.059999999999996154
0.5520000000000003,0.06180840508010428
0.5364374819833111,0.06799999999999566
0.5280000000000005,0.07220399043001553
0.5204370224815711,0.0759999999999949
0.5123250242344922,0.08399999999999433
0.5068733992689908,0.09199999999999339
0.5039999999999996,0.094930902103676
0.49917552462391956,0.09999999999999279
0.49514637225753944,0.12166666666665968
0.45720240070912055,0.12166666666665897
0.4559999999999993,0.12037624942609561
0.492072006324368,0.14333333333332604
0.5048117589506926,0.1649999999999931
0.5039999999999973,0.1629840932329002
0.4718837018278439,0.1433333333333259
0.47999999999999726,0.16430908717016263
0.4858862122165047,0.16499999999999296
0.5042119304949211,0.18666666666665968
0.5035507612351132,0.18666666666665968
0.5039999999999968,0.18684832511125093
-0.617255449026844,0.043999999999996486
-0.6239999999999999,0.04243036996845345
-0.5837652009862963,0.051999999999995695
-0.5999999999999999,0.04781132489389094
-0.5568593586616297,0.05999999999999474
-0.5759999999999998,0.05415605201086915
-0.5360987578652703,0.06799999999999408
-0.5519999999999998,0.061657277241613795
-0.5209733014278695,0.07599999999999327
-0.528,0.07225994563361783
-0.6617352773273821,0.035999999999997166
-0.6719999999999999,0.03433442875217891
-0.6479999999999999,0.038216668128349465
-0.5124343760417608,0.08399999999999255
-0.696,0.0314886519450387
-0.5061748830871835,0.0919999999999918
-0.498713730681096,0.09999999999999105
-0.5040000000000004,0.09427481008954286
-0.4596030839165057,0.12166666666665747
-0.45600000000000224,0.11878853769738322
-0.7298243366653021,0.02799999999999793
-0.744,0.026560162305017104
-0.72,0.029023172964843524
-0.49361243274583544,0.12166666666665771
-0.4794661235057102,0.14333333333332482
-0.768,0.024988162575589626
-0.48118390063432254,0.14333333333332482
-0.4800000000000052,0.144485630287721
-0.7919999999999998,0.024215471125507163
-0.8159999999999998,0.02256750503259358
-0.8485811003793144,0.01999999999999879
-0.8640000000000001,0.018768860811229422
-0.8400000000000001,0.020693489870362833
-0.8880000000000001,0.016538808634742275
-0.9120000000000001,0.015137864465381748
-0.9360000000000002,0.014274878033818687
-0.9600000000000002,0.013623351952915816
-0.9840000000000002,0.013061956165605479
-1.0241568618351953,0.011999999999999626
-1.032,0.011791313483242066
-1.008,0.01242777286159186
-1.0560000000000003,0.011298594543797908
-1.0800000000000005,0.01089523292953876
-1.1040000000000003,0.010418740128204592
-1.1280000000000001,0.010013257277379334
-1.1520000000000001,0.009572659937148075
-1.1760000000000002,0.008943620122089692
-1.2000000000000002,0.007957464978458251
-1.4300000000000002,0.00630528736336822
-1.844522812441685,0.004000000000000115
-1.8900000000000001,0.0038125753604713684
-1.6600000000000001,0.004747955950205678
-2.12,0.0032299662074159966
-2.35,0.002829729677188325
-2.58,0.0025604714661385457
-2.81,0.0023714809638585447
-3.0400000000000005,0.0022340226481349203
-3.2700000000000005,0.002156524945016717
-3.5,0.002142736900384202
-0.30169214992170745,-0.08358609251513739
-0.30002528124762606,-0.08419282736754592
-0.35160632350939675,-0.038536827836754314
-0.34937087178332044,-0.04101693937872601
-0.34537959410240715,-0.04492391074330747
-0.34770083097149274,-0.04272855492600784
-0.3555117700008714,-0.034090305382719614
-0.35291287527557863,-0.03711004920665415
-0.3563143670017737,-0.03320318442775798
-0.2944450795675512,-0.08622559475713017
-0.2962270765023436,-0.08557665372875199
-0.2923385034558539,-0.0869927626719158
-0.2903324081186208,-0.08772334915522445
-0.2884329453953413,-0.08841507289483065
-0.2864799457079773,-0.08912628328376981
-0.2845388280877548,-0.08983317399037268
-0.28257394478987863,-0.09054872515751677
-0.28062094646779284,-0.0912599524695791
-0.3033931485321195,-0.08296512767795658
-0.29812630692363057,-0.0848848999413285
-0.34379525438679903,-0.04645521384717843
-0.34213216783106865,-0.04883074767959775
-0.35941718730492056,-0.029482275896829835
-0.27874946606890016,-0.0919414917419843
-0.30346626380847513,-0.0829385929672524
-0.34184262011511846,-0.04917080801916516
-0.34076186574263057,-0.05078412035148417
-0.3388840719116196,-0.0527375847369098
-0.33988994901441094,-0.05168261084624751
-0.35958578885012465,-0.029296343154997562
-0.2610910121018807,-0.09837235974278641
-0.2591380152096149,-0.09908359098106692
-0.25726946219953206,-0.09976408358927401
-0.27671494721803713,-0.0926823999389916
-0.27476195110200563,-0.09339363330872241
-0.272969254235109,-0.09404656899606853
-0.2708559752591073,-0.09481614505178945
-0.26885204578786703,-0.09554594845239281
-0.264997005808659,-0.0969498970527337
-0.2630585773736749,-0.0976558305062521
-0.3035901406143862,-0.08289615986161945
-0.3379371963430782,-0.05374304717075745
-0.3370435500332758,-0.054691042386574615
-0.3351967546983411,-0.05664450116997359
-0.3359844454327234,-0.05581322780061848
-0.36261815110782714,-0.025389545084912105
-0.2552320325767811,-0.10050608407943229
-0.2532790366748745,-0.10121731803717153
-0.2514898256505286,-0.10186898282748169
-0.26694999568440336,-0.09623864654755965
-0.303668864868346,-0.08287142860099199
-0.3333557008390224,-0.0585979589157753
-0.3340316952877858,-0.05788764383303948
-0.3633225492020787,-0.024567655551973974
-0.36583333437010346,-0.021482713975547928
-0.2357895517996576,-0.10758688884205475
-0.2376551679211425,-0.1069074600676813
-0.24937306155055197,-0.10263983175330958
-0.24737170605957737,-0.10336873075086749
-0.23960815631293775,-0.10619620548769038
-0.30378801429520014,-0.08283334674834839
-0.33207895593116293,-0.06002175637867163
-0.3315911352122582,-0.06055140283868558
-0.3672279630641293,-0.01994057999339066
-0.36931502306823155,-0.01757583470352131
-0.23179623236268238,-0.10904130513372925
-0.23374920264378196,-0.10833000082297581
-0.23001055117613123,-0.10969170422478465
-0.22789025617552094,-0.11046381593146706
-0.22589146937496946,-0.11119178433197643
-0.24546710856710677,-0.10406240626693017
-0.2435141285191479,-0.10477368375854335
-0.24157839733474684,-0.10547866043725873
-0.30385570764487035,-0.0828169288328059
-0.33012623828856985,-0.06227602232439636
-0.32991654242011575,-0.0625048305017681
-0.37113341825392987,-0.015542189215672762
-0.3728423542191881,-0.013668947183019309
-0.22398432715081748,-0.11188645623416675
-0.22203135076817734,-0.11259774379049281
-0.22009829876159454,-0.11330169286341896
-0.2177337192425504,-0.11416290066605213
-0.21812537163284085,-0.11402024649274321
-0.3039785705725624,-0.08278327650660822
-0.32825887766359785,-0.06445825510562739
-0.32650037873155996,-0.06641169793216342
-0.3281735242880182,-0.06455044129050484
-0.3750389038510723,-0.011312055801465685
-0.2143099151379244,-0.11541040102438177
-0.21617250900658008,-0.11473184641650026
-0.30416594057416546,-0.0827295499750386
-0.3217034933005195,-0.07031881488558869
-0.3223150964703897,-0.06979215136077851
-0.3262207879599952,-0.06670131239285663
-0.3242929400397396,-0.06836522189077086
-0.3242679676139023,-0.06838727419738777
-0.37653325272249905,-0.009762030102741914
-0.21031387982583633,-0.11686653277531087
-0.20853201260071846,-0.11751632519633351
-0.20640829268606536,-0.11829011187117056
-0.20441229005322276,-0.11901772943619547
-0.21226668234110171,-0.11615476779078204
-0.3044666593718523,-0.0826349110411006
-0.32036226650342203,-0.07142487659992075
-0.31947128360808136,-0.07227234332079355
-0.37894424447173414,-0.006279703084551966
-0.37933729055612997,-0.005855273295285308
-0.2013087926180933,-0.12014992767072219
-0.20250298112621395,-0.11971444769109116
-0.3051051443556755,-0.08241021871366917
-0.3055404145630632,-0.08226445033537606
-0.30545778442374216,-0.08228610602999462
-0.3184094753583427,-0.07327242062242177
-0.317408785881826,-0.0742258410857746
-0.3153152492615418,-0.07617934446008051
-0.31645668536281557,-0.07512632561926857
-0.3828493153766852,2.4510644714528557E-4
-0.18883452167466033,-0.12469998279985361
-0.1907873031899121,-0.12398816015068503
-0.18761159897077798,-0.12514632320418712
-0.2005504103437544,-0.12042684899841566
-0.1986205728351975,-0.1211312186446476
-0.19469280941005557,-0.122564358854914
-0.19283333754655843,-0.12324226692205734
-0.3056427194833703,-0.0821835856387034
-0.3145038857419444,-0.07692696934303297
-0.3126684257325771,-0.07813294782399166
-0.3843853569685115,0.001958139115165622
-0.18492961123737126,-0.12612542007553174
-0.18293616515888791,-0.12685204960561397
-0.18705664865650465,-0.1253495364321858
-0.19664552451862458,-0.12185235385744642
-0.30577335250205734,-0.08210717585819376
-0.30669222718648015,-0.08158376154699873
-0.30622251469038203,-0.08204036278812914
-0.3125509935672729,-0.07821547175767268
-0.3903956178350109,0.009771725412695928
-0.17714421955671175,-0.12896449126030265
-0.17907136723322936,-0.12826116410355415
-0.1732129622867512,-0.1303964661946777
-0.17516601363521403,-0.12968538448949898
-0.17135619495595095,-0.1310725334594069
-0.1810240550412432,-0.12754908414059588
-0.31059808140561884,-0.07939337731708661
-0.30972456721653857,-0.08008660486784966
-0.308645233928495,-0.08092921111261561
-0.3906600242046816,0.010157162529109148
-0.395475690593188,0.017585143607305842
-0.3984705626695893,0.02101191320205565
-0.40221777359254374,0.025398862159194943
-0.4062809955739828,0.032450777110310684
-0.41213019766256226,0.04102565378038406
-0.4067394868579005,0.03321217944748371
-0.1693069226440224,-0.13181880274765836
-0.16725241812084515,-0.13256726933594848
-0.1614569952238904,-0.1346779958367711
-0.16344816166035148,-0.13395312718445493
-0.41409138994921646,0.044102839980515195
-0.41654017998544624,0.04883895087674385
-0.4623422829486432,0.13478472960265914
-0.4687601961883611,0.14754866219092466
-0.15173046188826697,-0.1382212878180598
-0.14987739127708655,-0.1388981891497203
-0.15954201739024496,-0.1353751764376467
-0.15758897559884827,-0.1360862843859077
-0.1556641109892185,-0.13678742912600744
-0.1654889268046206,-0.13320989105002998
-0.4192069259701766,0.056651932936697534
-0.4328754901021029,0.08790440361990884
-0.43751981994921674,0.09429329575975072
-0.44415878313553253,0.10353144298354783
-0.453141030479266,0.11526352769758763
-0.4564637630662075,0.1191586669857014
-0.4726901417770638,0.15041159991530295
-0.15368322167562806,-0.13750940550558044
-0.14854356998713525,-0.13938625100451513
-0.42190036753571425,0.06359462407725777
-0.4269383520623653,0.07227833040951916
-0.1457766800726762,-0.1404028768981156
-0.1478268836097703,-0.13965038311279426
-0.14197213485294904,-0.14179572485642575
-0.1440139405059373,-0.1410482804367989
-0.14100102624882246,-0.14215155410272967
-0.1399860142336076,-0.14252641562320853
-0.138071435186637,-0.14323272462787034
-0.13612249176136335,-0.14395508641565669
-0.13595287063832087,-0.14401771259918764
-0.13027429685456565,-0.1461184245935767
-0.1284244468623176,-0.14679480126099625
-0.12636732927684188,-0.1475382130990908
-0.13420780544690086,-0.14467570489649936
-0.13222569213980237,-0.14540279544941007
-0.09900548667774622,-0.15744084451261392
-0.09702305184544434,-0.15816555009918298
-0.1087777812342764,-0.15390476135428724
-0.10692678990836367,-0.15456858246950023
-0.10281723807405178,-0.15605219468591836
-0.1041729042772418,-0.15556343202126913
-0.10105182217001735,-0.15669171052795988
-0.11463857727426792,-0.1517760250461869
-0.116097475944657,-0.15124854912844418
-0.11271887422215632,-0.15247436845261114
-0.11073208700936546,-0.1531971242207978
-0.12431562349225267,-0.14827879100576724
-0.12050344222207496,-0.1496584616871063
-0.11850364742738721,-0.1503815481158322
-0.09510072219952537,-0.15886668258214678
-0.09314774795460659,-0.1595779760085203
-0.10486658714966589,-0.1553129441542611
-0.1165931772698383,-0.15106919582248204
-0.12255009562233157,-0.1489172643024765
-0.09123098595673716,-0.16027587095203805
-0.08728885765615509,-0.16171194535555047
-0.08924177551666307,-0.1610004971013619
-0.08544340347792038,-0.16238149436590202
-0.08338266417663193,-0.16313385948298295
-0.08247974467265086,-0.16346353641727024
-0.08133884778092412,-0.1638804955576039
-0.07555069664068782,-0.16601015640077496
-0.07752612139438743,-0.16527427495267594
-0.07957506861344023,-0.16452524987036032
-0.07530158777734855,-0.16610538793494814
0.296131798910465,-0.08570710657750294
0.2958909823259106,-0.08579485799828364
-0.07363602414570464,-0.1667403882545262
-0.07168656602275025,-0.16746133671688113
-0.0715723908646117,-0.16750508821598892
0.010948404581803158,-0.18942631859103137
0.01136794990612336,-0.1892739955754021
-0.004636936967896684,-0.19176740167494735
-0.0034141563642484693,-0.19221187438004414
-0.0072171513030170244,-0.19083010363403483
-0.0053393484785887995,-0.1915122712415375
-0.0016603069474361888,-0.1928507681429474
-0.0012409368440062722,-0.1930041397066006
-0.009550638555637377,-0.18998343572061602
-0.009159874999479125,-0.19012504842318778
0.022689472708778854,-0.18516373627468852
0.022736265338480728,-0.18514681385037884
0.020852857411272234,-0.18582877024062888
0.016743816599833143,-0.18732075883862562
0.018781405777206057,-0.18658050023744668
0.29803485398401347,-0.08501401758286929
0.29435012590513937,-0.08635915100005444
-0.06978684734331903,-0.16819748141050928
-0.069520607196451,-0.1683147268534071
-0.02283330366733056,-0.18516429779314414
-0.02099611623483959,-0.1858277641283848
-0.024402518227387912,-0.1845953070667502
-0.03456414956434756,-0.18093223554024265
-0.03258619569725743,-0.1816449833557395
0.012921252608586637,-0.18871042984689493
0.014978200083979444,-0.18796268629183227
0.009018127210489175,-0.1901269597921326
0.007076859924255909,-0.19083170319920517
0.00519849283508463,-0.19151443696452689
-7.181057387541703E-5,-0.19343344857228076
-0.012821956335454049,-0.1888003251720436
-0.011091635813162684,-0.1894265360276374
0.02664422691575566,-0.1837366138155129
0.026974715784181556,-0.1836173417629774
0.024644739536565992,-0.18445874474545457
0.29993562657126754,-0.08432000736254397
0.29224537618231083,-0.08713172681255407
0.2902402861941327,-0.08786495384147511
0.2864417532867752,-0.08925065785010626
0.2883411371126007,-0.08855746189614705
-0.06883842067765603,-0.16865680783016668
-0.0629147385334548,-0.1708140642280742
-0.061965187228107885,-0.17113723115543
-0.06569740843180397,-0.16994115432118062
-0.06404667561657282,-0.17043230763089895
-0.018924354921813394,-0.1865786455676242
-0.01688750438838119,-0.1873209324406423
-0.03058232021475458,-0.18236327617735018
-0.028696694430777072,-0.1830426864222908
-0.026786819014702687,-0.18373376130941263
-0.024787649504640283,-0.18445677066783409
-0.03662000905683235,-0.18018806846080998
-0.03740750749293931,-0.17990546112362715
-0.030652220899466974,-0.1823384012318738
-0.04043508575080057,-0.1788313433968172
-0.04132411777584859,-0.1785207502751593
-0.0443543960864613,-0.17744544727994366
-0.042510947873685395,-0.1781013770770919
-0.03838908332587858,-0.17955633823904685
0.0032728222740690703,-0.19221460420738345
0.0015182572794370409,-0.1928562511123842
-0.015122656968436114,-0.187965008122692
-0.013065518821683126,-0.1887124509438181
0.0285554504479489,-0.18304924896728092
0.08531890453668309,-0.16243408238262708
0.08716377730702668,-0.16176293719617732
0.20845021069619704,-0.11768622418830325
0.21023311187235083,-0.11703927288473512
0.2118236587317036,-0.11646351098280375
0.3016149612519156,-0.08370858407155368
0.28638866718991296,-0.08927011364894404
0.2844524834822465,-0.08999056643148713
0.2842368690457789,-0.09008046210526685
-0.05992382163507984,-0.17188278190122508
-0.0463136115938472,-0.17675129194329825
-0.06811158053236016,-0.16906197341937235
-0.06593284791974102,-0.16988410188554587
0.03051066297988783,-0.1823441081775194
0.10269688009402157,-0.15611616059649597
0.10474433072806907,-0.15537169781390395
0.09110584422801835,-0.1603266928098905
0.09302315412673647,-0.15963030380941712
0.08911680360341412,-0.1610517863946207
0.08325732575881539,-0.1631841420616378
0.08121297183710455,-0.16392930319487498
0.10655105890283822,-0.15471644527291567
0.17706357340826473,-0.12913759124082477
0.1789953452841321,-0.1284469742239581
0.22582573053383626,-0.11140583487957906
0.2265476558073968,-0.11116984982909713
0.21579630113892417,-0.11508082267960636
0.21423810543555122,-0.11560776588922417
0.2072337698119976,-0.11813315462357157
0.2044331477241633,-0.11921434686066744
0.20633231154868004,-0.11847601309635973
0.20243763794274672,-0.11992959579592533
0.20048066797041375,-0.12062990534164304
0.19854740309660776,-0.12132485503550908
0.2121878631247573,-0.11633286402691351
0.3493969719205916,-0.04114322019533358
0.35151864127989985,-0.038795190311864354
0.3459040836004237,-0.04504883902687265
0.3476116253917696,-0.04303283659716004
0.30329213099780283,-0.0830862805737148
0.2902628117375546,-0.08792686942834249
0.2902617278213761,-0.08792389009861201
0.2906319963959007,-0.0877812763343271
0.29025843048274147,-0.08791482679720534
0.28835756759583825,-0.08860262889578459
0.28640386541804197,-0.08931189385957816
0.28445747387504455,-0.09000428513379019
0.2961776311959961,-0.08582959035051388
0.29439168253085785,-0.08647270110479456
-0.05888968234292796,-0.1722798886946156
-0.0470182038951075,-0.1765095374979449
-0.0494640322347871,-0.17571247395244002
-0.048327172683394794,-0.17607640452505255
-0.06788773094386565,-0.16917804983934495
0.040298174406269455,-0.17884987715152226
0.04146626399460972,-0.17843366881361494
0.03647998465396557,-0.18019801270306507
0.037421127959576445,-0.17986353523632742
0.0382507194585673,-0.1795708594133048
0.03442183458556703,-0.18093587885856252
0.03232611243613099,-0.18168918330983724
0.03244338117709874,-0.18164724630110915
0.10106074495493879,-0.15671363255332316
0.0988851269838398,-0.1575048069891276
0.09976021726721601,-0.15718671977208398
0.09690096223473393,-0.158224760132512
0.09497746877431489,-0.15892269471489814
0.07944883631438629,-0.16457308065203752
0.07842344072285412,-0.1649483048332745
0.07542471952220162,-0.166058708704314
0.0774009387196051,-0.16532499442373277
0.11451797987885451,-0.15183935907357682
0.11647412328832549,-0.15113677728754943
0.11259639245738756,-0.15253252193633543
0.1068036534426621,-0.15462492232300268
0.10865375064347904,-0.1539586530581158
0.12038853622939227,-0.14973745847410755
