"Plane Section: Position[X] (m)","Plane Section: Position[Y] (m)"
3.5,0.0010299406562612975
3.27,0.0010450313646308586
3.04,0.0010866964745739598
2.8099999999999996,0.0011448169857277493
2.58,0.001241903329034599
2.35,0.0014018805075987064
2.1200000000000006,0.0016121227629904843
1.8900000000000001,0.0018976531946291847
1.6600000000000004,0.002326340659636191
1.4300000000000002,0.002979397817573542
1.2000000000000004,0.0037239552599214647
1.1833866137453222,0.003999999999999936
1.1760000000000002,0.004123901417823865
1.1520000000000001,0.004330689806762341
1.1279999999999997,0.0046055323361657696
1.104,0.004869820309267796
1.08,0.005167729570796432
1.0560000000000003,0.005427715582560848
1.032,0.005691454525224777
1.008,0.005984144089257164
0.9840000000000002,0.0062655880945711815
0.9600000000000002,0.006581006154186542
0.936,0.006929913705977755
0.9120000000000001,0.00730204426457863
0.8880000000000001,0.00772206193347091
0.8640000000000003,0.00819424307519074
0.8400000000000001,0.008716145307457002
0.8160000000000001,0.009287017019387191
0.7920000000000003,0.009960493210235158
0.7680000000000005,0.010681778980779676
0.7440000000000003,0.011499523613196626
0.7314741083833775,0.012000000000000031
0.7200000000000003,0.012462843883611756
0.6960000000000002,0.013456293678276221
0.6720000000000002,0.014763803755851299
0.648,0.01628478021879288
0.6240000000000003,0.01800432566185227
0.6021883990175114,0.01999999999999932
0.6000000000000001,0.020216250666076824
0.5760000000000003,0.023071127912374013
0.5520000000000004,0.026215549660591773
0.539083862821739,0.02799999999999872
0.5280000000000005,0.0295492265079956
0.5040000000000004,0.03296243689217384
0.491649376826396,0.03599999999999793
0.48000000000000065,0.03917933504860256
0.46700490860773014,0.04399999999999706
0.45600000000000057,0.04859513132051296
-0.49166503768584435,0.03599999999999631
-0.504,0.03295974840358955
-0.4664300461005787,0.04399999999999549
-0.47999999999999987,0.03920171709985972
-0.53925706141635,0.027999999999997114
-0.5519999999999999,0.02624212845757709
-0.5279999999999998,0.02957101717125999
-0.45599999999999974,0.04758577182251353
-0.5759999999999998,0.023114141865672046
-0.6022243813807865,0.019999999999998012
-0.6240000000000001,0.017980222267192945
-0.6,0.020223026431558766
-0.6480000000000001,0.016245683544988947
-0.6720000000000003,0.01479412795575039
-0.6960000000000003,0.013499776865309194
-0.729991758410258,0.011999999999998866
-0.7440000000000003,0.011440508817221518
-0.7200000000000002,0.01240559433268874
-0.7680000000000002,0.01064019362354639
-0.7920000000000001,0.009923029161606837
-0.8160000000000002,0.009266527584135254
-0.8400000000000003,0.008683800932885104
-0.8640000000000002,0.008154235686742218
-0.8880000000000002,0.007685807957547556
-0.9120000000000001,0.007254656529358031
-0.9360000000000002,0.00688817873308669
-0.96,0.006552712901755347
-0.984,0.006229099251142002
-1.008,0.005947183864018057
-1.032,0.0056682496414749255
-1.056,0.005409276163882617
-1.08,0.005161826709904209
-1.104,0.004898988519451631
-1.1280000000000001,0.004659770201701137
-1.1520000000000001,0.004387175421861361
-1.1868241216352255,0.0040000000000000695
-1.2000000000000002,0.0037726069869443886
-1.1760000000000002,0.004187429107748647
-1.43,0.002993386862822127
-1.6599999999999997,0.0023349945102055995
-1.8900000000000001,0.0019068844022475774
-2.12,0.0016064737101289645
-2.3499999999999996,0.0013933384609654646
-2.58,0.0012490098210213782
-2.81,0.0011522184634166553
-3.04,0.001082065049015541
-3.2700000000000005,0.0010428451908061336
-3.5,0.0010356295281841884
-0.30166030862444443,-0.03400642802778391
-0.299993428380737,-0.03461313491578093
-0.3582823392488186,0.01637561015405549
-0.3560949519259003,0.012469013148187668
-0.2944131644539864,-0.036645744175909274
-0.29619518032963343,-0.03599685494933623
-0.29230656381782905,-0.037412844728246616
-0.2903004442461814,-0.03814336465139953
-0.28840096807422494,-0.0388350514562916
-0.286447954977901,-0.039546225022351694
-0.2845068244886766,-0.04025308038960257
-0.28254192859297744,-0.04096859696247375
-0.2805889217236477,-0.04167980080390929
-0.3033614923268695,-0.03338561798258198
-0.29809443212819653,-0.03530515733587562
-0.35548163536087307,0.011540689706843577
-0.3534639815840074,0.008562345782535806
-0.3496469970133426,0.004655490294912057
-0.35157616313767687,0.0066368891772561715
-0.35938691435837733,0.017662680878531196
-0.27871743131888915,-0.04236131259998917
-0.3033693109010296,-0.03338277626160712
-0.3496233554542373,0.004636213339653994
-0.34813959886878054,0.002702126171436185
-0.34641657419383115,7.487278459297686E-4
-0.34767061726515397,0.0021974105531848403
-0.36163023709173303,0.02028239123657542
-0.26105880118614333,-0.04879169684785257
-0.2591057948140472,-0.049502902054770724
-0.25723722362886464,-0.0501833447541128
-0.2766828986213936,-0.043102182773239135
-0.2747298803191245,-0.04381335521842297
-0.27293715667627044,-0.04446621738196986
-0.2708238536856554,-0.04523572749059357
-0.2688199009647447,-0.0459654670476615
-0.26496481900849106,-0.047369300379260945
-0.26302637567402765,-0.04807519291885824
-0.3035013271770672,-0.03333745366896264
-0.3457178425883238,-1.135536253979553E-5
-0.34461567048168545,-0.00120468283251022
-0.34276203303581204,-0.003158101875413918
-0.3437650471976095,-0.0020895306852649134
-0.36329237823117766,0.02261912642711906
-0.3643679632539438,0.02418907553551517
-0.2551997737171876,-0.05092528953115357
-0.2532467661255725,-0.05163649138912142
-0.25145754432773443,-0.05228812660026458
-0.2669178315428766,-0.046658112094748204
-0.30358111264754845,-0.03331246444492404
-0.34181224570930274,-0.004129263744592088
-0.3408229528471484,-0.005111534470986652
-0.3388795606571871,-0.007064967750515613
-0.3398594289188516,-0.006072524487580508
-0.3664631178984661,0.028095657911713694
-0.2357571128913877,-0.05800559989366512
-0.2376227271614447,-0.05732616603250966
-0.24934074959886324,-0.05305889141561723
-0.24733936696394943,-0.053787715877498615
-0.2395757236056662,-0.05661493356244443
-0.3036565915889211,-0.03329086534297615
-0.33790661471775324,-0.008032109795546475
-0.33688455652212923,-0.009018409216574909
-0.3348973150416566,-0.01097184945134453
-0.3359537899865668,-0.009925308227040245
-0.367197610490704,0.02903577697239633
-0.3693342417067412,0.03200236336977713
-0.23176372441465223,-0.059459826605855
-0.23371672735012541,-0.05874861196155791
-0.2299780524808576,-0.06011025111345984
-0.22785775083889448,-0.060882344580970915
-0.2258589335600999,-0.06161022928968994
-0.24543474048897565,-0.05448131180970045
-0.24348173515422877,-0.05519251986529741
-0.24154598945509084,-0.05589745668818683
-0.30387180689910986,-0.03321918304247465
-0.3328468637756165,-0.012925299712259933
-0.3340009693307521,-0.011844199826810335
-0.37110300010390207,0.03446039192295972
-0.3721958721722798,0.03590906732203934
-0.21427709439759085,-0.06582806360577716
-0.216139748412635,-0.06514967415094801
-0.22395173385904704,-0.062304743363164966
-0.22199874192754632,-0.0630159882257057
-0.22006570622093186,-0.06371998206059139
-0.2180927440330227,-0.0644384394185301
-0.30412865970509584,-0.033133704999214364
-0.33204813639705144,-0.013685685551046715
-0.33072197235436873,-0.014878761780647173
-0.37427908372363866,0.03981564780386267
-0.20960630749282613,-0.06752911011785842
-0.2102807818965474,-0.06728343421823826
-0.2122337795974893,-0.06657220519927919
-0.3041863302284651,-0.03312939181345529
-0.3300952898034591,-0.015441052547985014
-0.3282900332460892,-0.016832272552005284
-0.32814240506936737,-0.016955962892510362
-0.32618951392406387,-0.018430453775199175
-0.32578441446715894,-0.01878579501020789
-0.3234919745609758,-0.020739283654624754
-0.3242366493237932,-0.020072297681620138
-0.37500796855392826,0.04254022844954063
-0.20849881493889644,-0.06793295281639243
-0.20637517265534497,-0.06870695270045976
-0.20437913581846914,-0.06943447638246915
-0.30439786888028075,-0.033070432110843755
-0.321286851019976,-0.022692758449183774
-0.3222838001314695,-0.021811280980995395
-0.3753259846962854,0.04372206390924846
-0.20051689853410173,-0.07084261416843166
-0.20246951478756703,-0.07013033764818612
-0.19858688009829395,-0.07154648706320063
-0.2806894552755427,-0.04195587819786728
-0.28131421171968796,-0.04182712670927514
-0.3048723051539942,-0.032915260202223746
-0.32033094708355137,-0.02352595665163097
-0.3186832130409134,-0.024646296454898513
-0.3157763129220807,-0.0265998825631273
-0.3164251010760637,-0.02607323560772753
-0.37895913225996464,0.05153514028633968
-0.1848953329791877,-0.0765390810952366
-0.18290194553847255,-0.07726587169374743
-0.19075380915195014,-0.07440397448535815
-0.18880100742688596,-0.07511574167798235
-0.18702253217320738,-0.07576364162675912
-0.19661144294648575,-0.0722665546021571
-0.1963564286015045,-0.07235953267393984
-0.1946589478336848,-0.07297916378943524
-0.19279967874426718,-0.07365762874496068
-0.2788122225336241,-0.042621620835799554
-0.28074174040846944,-0.04209945954925257
-0.30524826948327277,-0.03281387034962014
-0.30565530035872357,-0.03260706472796027
-0.30557881022833133,-0.03267952751946507
-0.31837803443895,-0.024864905295379224
-0.3144722199326985,-0.02761078369616007
-0.3130689794779915,-0.02855343701669616
-0.38281806116790107,0.05771820364724986
-0.39029836933867273,0.08278693927471345
-0.3878345821681559,0.07497404837801647
-0.3906264854201116,0.08341435894218589
-0.1782858683017182,-0.07894814617065772
-0.17903697661615792,-0.07867451671723656
-0.18098975660369465,-0.07796268983072427
-0.27679682702966246,-0.04341504407634439
-0.27890221250887437,-0.04286874428245391
-0.2760582856031807,-0.043741071543794086
-0.30575949898528754,-0.0325388770312571
-0.3066604133302385,-0.03198292528943779
-0.306191899277307,-0.032460777887391636
-0.3125193048160701,-0.028934147467700982
-0.3838963925368172,0.05934842351782032
-0.3861288841700806,0.06716127772712208
-0.39418096162634186,0.09060005521797332
-0.17710946683175208,-0.07937684957457293
-0.17513122848984797,-0.08009765380403475
-0.17317855526298184,-0.08080977386836774
-0.17132250240439884,-0.08148780315501827
-0.27794488673198225,-0.043264767253633304
-0.27448412912123726,-0.044525001702479125
-0.27491174757485864,-0.04431278488206579
-0.3105663524919718,-0.030022936894454053
-0.3098410135727207,-0.030507074051402114
-0.3086134301888015,-0.031300993130364815
-0.3980708562712234,0.09841317231950905
-0.16927361225618837,-0.08223512191153438
-0.16721909134194238,-0.08298354350575064
-0.1614238382404833,-0.08509473630098016
-0.16341482585616096,-0.08436937659950283
-0.276892002833438,-0.04367640844055701
-0.27493855695480285,-0.04438640670889654
-0.4213495677853754,0.09060436461971057
-0.42187541222979796,0.0901827610198685
-0.39843647405562177,0.09924786588238821
-0.4024392050166168,0.10622636531197818
-0.41816643181748403,0.09841635981862701
-0.1516969624364676,-0.08863708789844489
-0.14984324278680317,-0.08931220701768362
-0.1595090099670892,-0.08579232760148145
-0.15755605012642376,-0.08650366058937772
-0.15563113904677056,-0.08720467772814232
-0.16545553790230233,-0.08362599464712223
-0.42968858389129105,0.08594889334689837
-0.4062468201911126,0.11282751567263541
-0.42042490547165134,0.10622921814912031
-0.1457391684445395,-0.09080765986907562
-0.14779108071540106,-0.09005985811775494
-0.1419330359902088,-0.09219614953526269
-0.14397562344261955,-0.09145085179574976
-0.15365001747544016,-0.08792601633672144
-0.14020866679243527,-0.09282628616620192
-0.43230442502588673,0.08279360214760126
-0.13994550439040843,-0.09292296602802066
-0.12875641480817185,-0.09701512006628772
-0.13022108720889736,-0.09648010315252609
-0.43750596025113053,0.05520652166502095
-0.4372727684972716,0.055450639867230214
-0.445319199523331,0.05054640253682226
-0.4431024220259068,0.05154531450002421
-0.4323519900477206,0.07498110959395729
-0.1380301777408922,-0.09362722257671692
-0.13607776444194114,-0.09434005643480686
-0.1341562021268638,-0.09504179399735607
-0.1321732993156879,-0.0957667167962233
-0.12837128218762972,-0.0971566034815006
-0.43477006770016696,0.05935649294556272
-0.4414126518104225,0.052423022626999674
-0.4492256092602078,0.04953965180448576
-0.4319127486723144,0.06716853982456475
-0.12631890459482187,-0.09791303157076023
-0.4531318799776135,0.049409348740945075
-0.43403300405336603,0.06216887618190078
-0.43382732808451174,0.06326259354751351
-0.1242718954172431,-0.09866650653392328
-0.45703831598324784,0.04823698673543434
-0.12251077842697783,-0.0993170923730516
-0.1224800640763191,-0.09932839906598086
-0.12046830020500089,-0.10006975505654539
-0.1184732581064669,-0.1008058926551158
-0.09506719824675633,-0.10928241677431576
-0.09557134724438189,-0.10909945824741632
-0.09897737372723753,-0.10787143774200736
-0.0969912102136822,-0.10858590408370278
-0.09480594298794441,-0.10937818011116651
-0.10690872521172244,-0.10502677018075543
-0.10875705279886613,-0.10435563473556839
-0.10279336357978444,-0.10649442719945602
-0.10323380075984677,-0.10633692343291554
-0.10102650228747492,-0.10712997362374116
-0.45780934833605913,0.04764139721884308
-0.4609450314143117,0.04530298821814246
-0.11461759293088264,-0.10222619600952158
-0.11656856233647078,-0.10150939704416406
-0.11269797931832523,-0.10292478498293992
-0.11071075719366369,-0.10364634638412223
-0.0931172324552226,-0.1100019717862659
-0.1048467410961702,-0.105766239685059
-0.46398454682385654,0.043736126660928326
-0.0912033397327762,-0.11070774610287323
-0.08921464199992798,-0.11143378022276124
-0.08726257441884297,-0.1121475634642713
-0.08541804249670819,-0.11281964495085176
-0.08335700403540276,-0.11357118865466245
-0.08131140371922163,-0.11431292600904419
-0.07551730946380598,-0.1164262676583747
-0.07749769887245785,-0.11570401875638549
-0.4648515942392648,0.043331094292445624
-0.07954697362143207,-0.11495589293664554
-0.07359197500794086,-0.11712722246901963
-0.07163816909148793,-0.1178362320296164
-0.06972367494430205,-0.11853180417802008
-0.06773248425331405,-0.11925954291335364
-0.06678881176235596,-0.1196083615942659
-0.06395061379939893,-0.12067632081392635
-0.06578376848291384,-0.11998253063577681
0.2961620126230957,-0.03610970955057901
0.2943794559389923,-0.0367592273823376
-0.4687580736274394,0.04188522722176288
-0.06232118854939409,-0.12127686603024826
-0.006377219112425088,-0.1415404379239313
-0.005306022734560668,-0.1419287376668475
0.27665224864397187,-0.04322420041987532
0.2747000416403299,-0.04393760327960537
0.2729079757226179,-0.0445922737377868
0.29227290603908607,-0.037526821521174696
0.29026703297135514,-0.03825788719857411
0.2874563191587515,-0.039282022650828134
0.2883677112466594,-0.038949919060299196
0.2786863764779164,-0.04248221702937182
0.28055766152254813,-0.0418001404316179
0.29806495579016057,-0.03541667462511197
-0.4726646363152799,0.03991419771149523
-0.0608032917357038,-0.12182960796411402
-0.0598458773188864,-0.12217654486119271
-0.06188935718437742,-0.1214368000341924
0.012956060369286943,-0.13912552245223803
0.015013603836976534,-0.1383794168219894
0.01098382881612672,-0.13984311146306838
0.00711205095461336,-0.14124792901174577
0.007206617977057246,-0.14121368308096377
0.00523321264128951,-0.14192939483392158
-0.0033805980942678915,-0.14262796429940644
-0.007184647915285419,-0.14124875571077167
-0.0016266071112028535,-0.1432675604256381
-5.848856041974088E-4,-0.1436497154427612
-0.008810485288509156,-0.14066258558723155
0.01611022906904131,-0.1379828532125754
0.016780769790590296,-0.13774174837440337
0.01881954022441494,-0.13700473677072078
0.2722872179567233,-0.04481889494999813
0.2649415763746815,-0.04751168140120775
0.26300356014014725,-0.04821874827871207
0.26172981179391397,-0.04868732369700171
0.261039401520532,-0.04894464218068487
0.2590921294383782,-0.049671610319761327
0.25829223249827676,-0.04997949798242558
0.2999650597525871,-0.03472198580205791
0.2864151315947494,-0.03966226881102147
0.284474989544664,-0.040371839768265555
0.2825104840485801,-0.04108842954067646
-0.4727888109387369,0.03983127311741293
-0.4765712498269479,0.03762274959666831
-0.05807975719049796,-0.1228156240818476
-0.05602890586462236,-0.1235664826495323
-0.055924473384757895,-0.12360622905321615
0.009054013700067687,-0.140545053524814
0.00330720363148529,-0.14262861295917742
0.0015523934171807032,-0.14326913338509978
9.305676191256117E-4,-0.14349685130058415
-3.752890735425484E-5,-0.1438526395860242
-0.013034328470273849,-0.1391345931042809
-0.01464813365806646,-0.1385491385209007
-0.011061472199910424,-0.13985150809906985
-0.009129095315399273,-0.1405483738439385
0.022731664499476865,-0.13559912547198089
0.023464299801019987,-0.1353383373717589
0.02067869733732671,-0.13633321776104396
0.020892299640030327,-0.13625660153645938
0.19073357834845597,-0.07455465552079651
0.18877873325500294,-0.07526080670992251
0.1870014649384288,-0.07591202484089143
0.18612534235868575,-0.07623313532889245
0.27079607744391065,-0.045365645454435284
0.2687938477035078,-0.046100121512925606
0.26689361888317265,-0.04679782637161892
0.25815059711037525,-0.0500430774712054
0.25788395044085743,-0.050145505545132515
0.2584866681774737,-0.04997118690615146
0.3016435367668643,-0.03411056419159643
-0.47972631832708335,0.035926123474613506
-0.05405718385612833,-0.12430444550622977
-0.05214130315707201,-0.12503944926914293
-0.051884108745656354,-0.1251399573355853
-0.019136921377107565,-0.13693304481836466
-0.01889978362381556,-0.13701896311444264
-0.022810505999354688,-0.13560948649037405
-0.02097207239668894,-0.13626953035237538
-0.016860180445970714,-0.13775369098420398
-0.024134442913546668,-0.13514094464778667
-0.015091964019694887,-0.13838851518466996
0.024691255525507286,-0.13490602006307495
0.02592485692414779,-0.13447095324893468
0.08535774979537897,-0.11286026926503981
0.08720366834065041,-0.11219199874139527
0.19108470230956986,-0.07442896672236292
0.19075313095103352,-0.07460840237701387
0.18879651116666074,-0.07530967523562804
0.1870119834344909,-0.07594093843913186
0.2608505600046669,-0.04920485944310314
0.25912980953140835,-0.0497751866357178
0.3033218983195718,-0.03349177464614124
-0.4804778363034774,0.03550174438840424
-0.484384311039966,0.03408520382787796
-0.05021311293752137,-0.125818802657358
-0.04967251182613225,-0.12603895508630641
-0.02629458073289532,-0.13439595073713798
-0.02477158562962145,-0.1349204514349643
-0.04119799287720332,-0.12912495009609165
-0.040448393288027615,-0.12937568606135058
-0.04438822384882049,-0.12804614349613186
-0.04253795156049425,-0.1286833326158181
-0.03839938814235038,-0.1300924338472876
0.02669785941394668,-0.1342034509165079
0.027959427019041767,-0.13377241094221398
0.06571389062886945,-0.11999682142714432
0.06766911169716829,-0.11929170373041631
0.06387511091000551,-0.12067517249152795
0.05977751129357893,-0.1221950200180242
0.06181627017987233,-0.1214423015097437
0.09114963483570854,-0.11076647377044525
0.09306730750138367,-0.11007108189006341
0.08915844772773526,-0.11148566693639268
0.08329673662366294,-0.11361188369517736
0.08125130742781138,-0.11435408898913574
0.07545473610078039,-0.11646062547235898
0.07743520709255,-0.11573859956786671
0.14982589298268073,-0.08947082314040693
0.15168064376813922,-0.08879853807565485
0.14777105795764076,-0.09021112736730315
0.1457127933885291,-0.09094146854900563
0.1439471774777245,-0.09157896903698708
0.14252886955180574,-0.09215554578213946
0.2608734988816829,-0.049215620192596704
0.25924372065438683,-0.04988245541425478
0.25917813730762695,-0.04990803166385721
0.2573098082578661,-0.050589140248314526
0.23768153607892803,-0.05769409763514382
0.23963407638036466,-0.0569816109556725
0.23581544681643796,-0.058372226174834986
0.3554558961379768,0.01168289730732635
0.353340880068292,0.008450234543432675
0.3499099998627483,0.004544528690087247
0.3515488262100563,0.006513974747807714
0.3036304191572117,-0.033381964209666964
0.35819451546146897,0.016261964772808273
0.35590948965244174,0.012356077167520782
-0.4882906420542117,0.033574759591118594
