"Plane Section: Position[X] (m)","Plane Section: Position[Y] (m)"
3.5,5.022811244246263E-4
3.2700000000000005,5.092467673707498E-4
3.04,5.293517542878825E-4
2.8100000000000005,5.58658838632114E-4
2.58,6.051545053006428E-4
2.3499999999999996,6.830592635386694E-4
2.1200000000000006,7.867706986313689E-4
1.8900000000000003,9.289113609845862E-4
1.6600000000000006,0.0011492657153782421
1.4300000000000002,0.0014816272063664581
1.2000000000000004,0.0018390184919759114
1.1760000000000002,0.0020362963683825917
1.1520000000000001,0.002108410007487146
1.128,0.00218648226086418
1.104,0.002277055709175615
1.08,0.0023696842407820353
1.056,0.002463964843700679
1.032,0.002570717068914238
1.008,0.0026865535988594147
0.984,0.002805836593588084
0.96,0.0029383065436576245
0.9359999999999998,0.0030880296013970202
0.912,0.003252323283485808
0.8879999999999999,0.0034354133420173155
0.8640000000000001,0.0036456942875900296
0.8399999999999999,0.003887968433978976
0.8297572146403089,0.004000000000000281
0.8159999999999998,0.004150530678871259
0.7920000000000003,0.004448952318446962
0.7680000000000006,0.004766243295901139
0.7440000000000004,0.005113168747754606
0.7200000000000003,0.005502583684499203
0.6960000000000004,0.005913446217037654
0.6720000000000003,0.006443195568384812
0.6480000000000001,0.007030967554918748
0.6240000000000001,0.007689302764810956
0.6000000000000001,0.008550128147905043
0.5760000000000001,0.009729635705233029
0.552,0.011305160381084749
0.5426200262077814,0.011999999999999903
0.528,0.013072887417620534
0.5040000000000002,0.014100888590194649
0.4800000000000002,0.015804680235698483
0.4560000000000003,0.018144611459556797
-0.48000000000000015,0.01577465478232137
-0.4559999999999999,0.01822782726636109
-0.5040000000000002,0.014149083317444017
-0.5431843850418625,0.011999999999998439
-0.5520000000000003,0.011337716667693325
-0.5280000000000002,0.01311467034713695
-0.5760000000000003,0.009772168401445163
-0.6000000000000002,0.008582153882487944
-0.6240000000000002,0.007694637222267951
-0.6480000000000001,0.007002887648747129
-0.6720000000000002,0.0064369709789113445
-0.6960000000000002,0.005918668441520256
-0.7200000000000002,0.005479751148121248
-0.7440000000000002,0.005098023643511716
-0.768,0.004748100906886681
-0.792,0.004432070128703448
-0.8286407329716061,0.003999999999999452
-0.8400000000000001,0.0038747386091287327
-0.8160000000000001,0.004139641020671406
-0.8640000000000001,0.0036434077662112754
-0.8879999999999999,0.0034382819309446582
-0.9120000000000001,0.0032529474362972145
-0.936,0.0030927434339745657
-0.96,0.0029467601495096075
-0.984,0.0028152701066633925
-1.008,0.0026924858355483455
-1.032,0.0025801082324586966
-1.056,0.002473721862351407
-1.08,0.0023713224159740615
-1.104,0.0022811105052925103
-1.1280000000000001,0.0021925389525164884
-1.1520000000000001,0.002112480618015372
-1.1760000000000002,0.0020375494559019616
-1.2000000000000002,0.0018423121222093388
-1.43,0.001483552303692585
-1.66,0.001149747894976905
-1.8900000000000001,9.314857093602257E-4
-2.12,7.838101767288662E-4
-2.35,6.80293635529207E-4
-2.58,6.080655507905578E-4
-2.81,5.614125292802665E-4
-3.04,5.282447445659722E-4
-3.2700000000000005,5.089663786109394E-4
-3.5,5.049058364526156E-4
-0.3476575108905251,0.04457493884333788
-0.34567518042714557,0.042375378722946326
-0.35156333792774075,0.048413358407935994
-0.3493202162955106,0.04628203042263941
-0.30164637668803995,-1.900059943738628E-4
-0.299979499916109,-7.966894554918704E-4
-0.3437518087139503,0.039603462875515937
-0.3428337116465981,0.038468815574807975
-0.353667378166701,0.0501887594952788
-0.29439912603848833,-0.0028290085836236867
-0.29618116905066655,-0.0021801939521380194
-0.29229248426993276,-0.00359599624769703
-0.29028632724646536,-0.004326413314692912
-0.28838681996947924,-0.0050180146943998305
-0.28643377405549875,-0.005729098130628842
-0.284492607605192,-0.006435854735632207
-0.28252767081352725,-0.007151258993439087
-0.28057462327183313,-0.00786235113611405
-0.30334755991418483,4.3073280231953527E-4
-0.2980804484053627,-0.0014885736030195741
-0.3407279981787398,0.03456233350550007
-0.35546922117336155,0.05174171105767443
-0.35878184238862365,0.05409557312316844
-0.27870309859437503,-0.008543768808997012
-0.3033806467294268,4.42767979327573E-4
-0.3401713156592844,0.03260914714829494
-0.339353417899037,0.03065593200566924
-0.3398464093217015,0.031884350097886906
-0.35937515942915377,0.05457087018915225
-0.2610441543966721,-0.014973290530181631
-0.25909111102492294,-0.01568439412577285
-0.25722251382713374,-0.016364765387741058
-0.27666853084808113,-0.009284542726273352
-0.2747154827023457,-0.009995633209929262
-0.27292273472554934,-0.01064842855156631
-0.27080939119747144,-0.011417827323816201
-0.2688054005092198,-0.012147462609592643
-0.26495025316689214,-0.013551116370827494
-0.2630117705387468,-0.01425690099714517
-0.3035133070194653,4.883578786033932E-4
-0.3382573528387519,0.028702686209541473
-0.36328114897862607,0.056934561314461216
-0.3653357762546189,0.05800254537786073
-0.25518502574222096,-0.017106605329075333
-0.25323197753597704,-0.017817695646553913
-0.2514427342250765,-0.018469271789837045
-0.2669032976560103,-0.01284001584413764
-0.30354798671023664,4.967243675607206E-4
-0.38671910510969854,0.05279666029604973
-0.38817134409204185,0.054098811790037865
-0.38452812879992215,0.05019216029096639
-0.33789368467417746,0.028251216877659933
-0.3367567802653484,0.026749395837456176
-0.33516271239332945,0.02479609516237148
-0.33594083140494807,0.025785270000645105
-0.3906251321088958,0.054820511402478705
-0.3671871690854155,0.059020958013024524
-0.3710932409016617,0.0606381137576249
-0.3745527595756128,0.06190981109551021
-0.23574199451938288,-0.02418589848947069
-0.23760765366564565,-0.02350658786620332
-0.24932590322233447,-0.019239936976700282
-0.24732448231723264,-0.019968656338267037
-0.23956069655986484,-0.022795482959061888
-0.30378015919707696,5.7670417313781E-4
-0.3334450426924397,0.022842780866600864
-0.3339879582567086,0.023499716553136627
-0.382928383743335,0.04823885899026197
-0.3828133730996941,0.048095909825574136
-0.38172672036022354,0.04628560155739511
-0.3945310939327485,0.057435800510011396
-0.3956585551919479,0.05800588689009464
-0.3749993320080165,0.06208022017569936
-0.23174854107739834,-0.02563994679147877
-0.23370158167745242,-0.02492883558333462
-0.2299628207272173,-0.026290238351177872
-0.2278424781966137,-0.027062219522435316
-0.2258436344158546,-0.02779003145193267
-0.24541981598632034,-0.02066214281517471
-0.24346677587057275,-0.021373255353481346
-0.24153099578023446,-0.0220780977314616
-0.3040195374603183,6.581201602078024E-4
-0.33203506458419907,0.021400411972820135
-0.33158615424531873,0.020889451008789504
-0.3808606128735271,0.04478563739846914
-0.3806770175288915,0.044332360870295184
-0.3984370947165951,0.05969754455967226
-0.382811609539211,0.06409945880435725
-0.3867177817236226,0.06480581681218042
-0.3906239664419204,0.06539843526058445
-0.37890545655275143,0.06321888765058327
-0.21426155901801994,-0.03200721702262034
-0.21612425806647012,-0.03132895123298765
-0.22393640213603144,-0.028484456054610842
-0.2219833602856568,-0.029195563828699426
-0.22005028802243076,-0.029899457277120484
-0.2180773040683595,-0.030617854861173216
-0.3040853881095921,6.712300694056001E-4
-0.33008215389407775,0.019455534839746554
-0.3296107118211612,0.018936108306956786
-0.32747636079468656,0.016982748093699613
-0.3281292274933756,0.017653224480439822
-0.3800656161653836,0.0423791684831774
-0.4023431120810119,0.06180882713114434
-0.4025980410624278,0.06191290163187887
-0.39304707146956586,0.06581809915701248
-0.20848302773346356,-0.03411141470262434
-0.21026518545728712,-0.033462419962193374
-0.2051363047164454,-0.035330102941139876
-0.2063591454985275,-0.03488475564929727
-0.2122182186003448,-0.03275128827314342
-0.30418678412956424,6.925013724922099E-4
-0.3040598284575434,6.564746332791568E-4
-0.32617629807154047,0.015878329594251353
-0.3253042356490448,0.015029383717806058
-0.3228980861130224,0.013075993552875382
-0.32422335910975536,0.014190005636664497
-0.37961177347128916,0.0404259934587246
-0.4046417180790006,0.06581937686488827
-0.39453015388564244,0.0659663215942417
-0.398436384695775,0.06614067654042399
-0.20436299917657472,-0.035611978722641734
-0.30445612140256273,7.752846967659292E-4
-0.32043849828624893,0.011122597499145728
-0.3222704109196396,0.01258542476700849
-0.37932220873829464,0.03847283653738833
-0.4023426425327027,0.06606977503680007
-0.20050051146064424,-0.037019428930167395
-0.20245337425517404,-0.03630782937282846
-0.19857049297656965,-0.03772330183995859
-0.19278281428160052,-0.039833133005376886
-0.19464229613829004,-0.03915525222813017
-0.19197722865818406,-0.040126737936393875
-0.3048761414924299,9.084189562616316E-4
-0.305502664494613,0.001130842101121956
-0.30547310128056365,0.0011204736112046614
-0.32031745757860414,0.01102758630963092
-0.31836448985142196,0.009600295901625576
-0.31782004389295093,0.009169183938619053
-0.31526114309275377,0.007215776940789068
-0.3164115314948875,0.008087970894922622
-0.3793197195463082,0.036519711251227785
-0.18487853850053057,-0.04271477800840387
-0.1828850849516328,-0.043441387165234185
-0.19073682658149566,-0.040579154544532536
-0.188784184729826,-0.04129136092930195
-0.18700601121104238,-0.04194008964588088
-0.19659509922007296,-0.0384434886676166
-0.30566222586404146,0.001207695669845042
-0.3144585681020574,0.006621348072578113
-0.31250557899529946,0.0053880680463297675
-0.37983174924972835,0.034566642664066165
-0.17709252702327294,-0.04555214770121546
-0.17901996153826255,-0.04484960804948668
-0.17316139488550752,-0.04698446640601295
-0.17511430022558686,-0.046272983701546255
-0.17130469235678486,-0.04766071164291755
-0.1809728730705776,-0.04413814235221142
-0.31232244975004547,0.005262328090549842
-0.3057829844157851,0.0012538730823869323
-0.30664658463315037,0.0019336212701489234
-0.3062649391389777,0.001355410540752534
-0.3828150627179431,0.032763354674616926
-0.38086186804984046,0.03339545499265588
-0.16925544736327405,-0.04840705597333285
-0.16769759099464848,-0.04897505457069677
-0.3105525912942225,0.0041420320414102
-0.30920516454618974,0.0033088595598293746
-0.3085996004243599,0.0029247514453839677
-0.3830902487831835,0.03261387673262421
-0.1672011836903686,-0.049156184133173
-0.16140695793047632,-0.05127019869299997
-0.16339778473375804,-0.05054439726184067
-0.386721364233756,0.03229608613046393
-0.3847682260066049,0.032416009213893274
-0.15168111465087014,-0.05481538623229704
-0.14982743516370234,-0.05549061567763257
-0.1594922662171177,-0.05196816510827702
-0.15753940139260242,-0.05267975909019154
-0.1556146131614669,-0.053381113651913246
-0.16543816579801354,-0.04980010621433268
-0.38867448491616485,0.03233537401962118
-0.14572305977829808,-0.05698524184525286
-0.14777520821383333,-0.05623808864158123
-0.14191600304739332,-0.05837119329756479
-0.14395912709415573,-0.05762736912796208
-0.15363388361011288,-0.05410352895300841
-0.1399274588223704,-0.0590952289929267
-0.390627703783926,0.03148367229292423
-0.138010043638654,-0.05979375021817971
-0.13605747683169933,-0.06050616271592068
-0.1352138047532136,-0.06081457152026454
-0.13020105169766114,-0.06264690282976648
-0.12835092326409753,-0.06332251528697075
-0.39123396050119613,0.030661649142219288
-0.12629626869472202,-0.06407269079075921
-0.1341366686408473,-0.061209971780569486
-0.13215376221738143,-0.06193488504424875
-0.3917083317686486,0.028708576405169505
-0.12424729605657991,-0.06482077411854495
-0.12043819045643075,-0.06620889059495268
-0.11844046914948231,-0.0669376709420024
-0.39232151270355897,0.026755518964678447
-0.12248338174605204,-0.06546367825796728
-0.11714707800960528,-0.0674110744940909
-0.1068814609158689,-0.07117372347193276
-0.10872916920812233,-0.07050088736159914
-0.400394063919278,0.02481317472113312
-0.4005241410942284,0.024803297866783598
-0.398440928656911,0.02490619365434108
-0.39648778581745736,0.025067971386432502
-0.3945346060835651,0.025564550203358384
-0.39258137456893744,0.026531016858160818
-0.11458360388852583,-0.06835468039605815
-0.11653418414146574,-0.06763681175707176
-0.11266589857066232,-0.06905851051745969
-0.11068188417645267,-0.0697888817943421
-0.10618897822151369,-0.07142861040908673
-0.4023471983155626,0.024728015117282776
-0.08333154196086448,-0.07972308764945522
-0.08340750300201744,-0.0796954862635749
-0.08329390529691914,-0.07973684662407687
-0.09897306085642893,-0.07408142217805833
-0.09698667988469437,-0.07479529010080467
-0.09310400479484493,-0.07618747100020656
-0.09425707416740334,-0.07577295744255871
-0.10482692884848098,-0.07193365878282063
-0.10278402742072892,-0.0726906166549306
-0.10102194981076826,-0.07333930059465012
-0.40625356474830715,0.023671653474397848
-0.4043003628280423,0.024369564027829034
-0.40844845399949337,0.02285104609904783
-0.408206771491157,0.02292998005849692
-0.09118507433168568,-0.07687941016407518
-0.08724172467237903,-0.07831213018010932
-0.08919519741752815,-0.07760220587384187
-0.08539465028586672,-0.0789772287571662
-0.08128965278903089,-0.08047501737997127
-0.0950612014098948,-0.0754877744350482
-0.07720630763576436,-0.08198105689291452
-0.07748084388981613,-0.08187955734547347
-0.41015995672389427,0.022383501613410503
-0.0795286755965961,-0.08112746790119188
-0.07550276727738556,-0.08260815857675385
-0.06392979384139164,-0.08684097471054283
-0.06577470864143346,-0.08617948061355955
0.261042739560486,-0.015069940925455275
0.26034447032325897,-0.015325274442654305
0.2786973982608971,-0.008628639531926567
0.28056870929584865,-0.007946634535395349
0.2779215832330078,-0.008911426043478164
0.2980765233015545,-0.0015652798103646865
0.2966820190170828,-0.0020731963324869757
0.29617383212268217,-0.00225848708686272
0.29439204536461644,-0.0029099858041374757
-0.4140663635951728,0.020960177765575704
-0.412113149438987,0.021769124001909862
-0.0735820489949548,-0.08332179185824602
-0.07163001697199578,-0.08403567315924945
-0.06971713673418348,-0.0847356777625891
-0.06772764638370626,-0.08546808690285831
-0.06186221635602722,-0.08758409475606287
0.2649479314003854,-0.01364527385605208
0.2630097536935424,-0.014351896676183137
0.25909155497551123,-0.015786153400946492
0.2572246917104464,-0.016471290393644103
0.27471144507795187,-0.010085074052496219
0.27666347626892585,-0.009371188405587394
0.2729193766835359,-0.01073973734640505
0.29997699215536916,-8.724238233509523E-4
0.290279422607323,-0.004408071185043889
0.29228527746556554,-0.003676959151705436
0.28642737911173105,-0.005812061229920179
0.28838024061414386,-0.005100486452521246
0.2844863620775585,-0.00651922686206876
0.28252162849997786,-0.007235189521290635
-0.4142398978266971,0.02089855929322209
-0.059819127259597496,-0.08832491226809415
0.0110041452521331,-0.10601509037694076
0.011292828146740649,-0.10591075284504395
-0.004021120782941619,-0.1085606237577012
-0.0033620992988200537,-0.10879941129390301
-0.006440070039431759,-0.1076881174319729
-0.005288487803194033,-0.10810273137860879
-0.0016078248542728945,-0.10943894486349384
-0.0013750524272295446,-0.10952404411051492
0.27080616158797355,-0.011509489229030381
0.2688023272285055,-0.012239554318671221
0.2669004976543809,-0.012932858786852866
0.25518841415655436,-0.017216457536621283
0.25323606495282636,-0.01792946915104591
0.25144730010658944,-0.01858236052486542
0.2487011940433233,-0.019589371410950664
0.2493320058025984,-0.01935724932693658
0.3016548677170493,-2.6120139389692796E-4
-0.42187903494031526,0.01940572493915873
-0.4199258745298795,0.019726951730186095
-0.4179727137650078,0.020051394863202246
-0.4160195531051094,0.020374885591966624
-0.05805835394257618,-0.08897867616375126
-0.05666957524556747,-0.0894999984781706
-0.05055516133277031,-0.09172622623050257
-0.050151473059176645,-0.0918713618551389
-0.04824018659232795,-0.09256716568415191
-0.04429916183345596,-0.09402340096448583
-0.04246939405528357,-0.09471690159178014
0.012978744534853528,-0.10530400577580527
0.014527275507023985,-0.1047462445605311
0.009073911461014219,-0.10671589339618225
0.007132702813006133,-0.10742095048758196
0.0033269591671409677,-0.10879943737014824
0.004383344761377613,-0.10841651645591745
0.005253642978023265,-0.10810197111966424
0.0015717359874735423,-0.10943880263253872
0.001232137430213324,-0.10956306888276476
-0.007168895348995248,-0.10742754325785595
-1.8295153222479687E-5,-0.11002278321809908
-0.008684613240601394,-0.10688322203043485
0.016806696187652778,-0.10392913858411883
0.017717580612964422,-0.10360396255639011
0.177101278176268,-0.04567675240974682
0.17902943626959805,-0.0449762008426612
0.24733468359380076,-0.020097233784474096
0.24543176067096228,-0.02079551202654526
0.24348114822389383,-0.02151329697708708
0.24154937579765468,-0.02222915426501758
0.24083688000081924,-0.022492382168244385
0.23763443089733993,-0.02368072377758773
0.239584713359557,-0.022962031890192216
0.23577278629178997,-0.02437106820467559
0.3033337293604199,3.5529519194945063E-4
0.34765496935125423,0.04435733704182242
0.345759324706951,0.04229918396313735
-0.42773842705359794,0.019250752087438892
-0.4257853075325537,0.019200925335067138
-0.42383217911185767,0.019231859082990747
-0.05601440734114642,-0.08974849934758371
-0.054040110225775775,-0.09047939224326526
-0.052108766626543096,-0.09117193157297657
-0.04779939133913066,-0.09272958840492916
-0.046247776262146864,-0.09330013311928137
-0.04178419237686774,-0.0949821213926674
0.015038159900540393,-0.10456304202855238
-0.012754789124647926,-0.10541978865064269
-0.011046371708388476,-0.10603187154535945
-0.00911432318392149,-0.10672969478550325
0.01885014824924293,-0.1032049933797741
0.1895969040508546,-0.04119823780376834
0.18881448190355843,-0.041475179891145145
0.18703290096601785,-0.04211454451565888
0.17512215504142736,-0.04639512539629513
0.1731697830907859,-0.047108074492643204
0.17131402197352752,-0.04778690740239731
0.16926485380121187,-0.04853346316051784
0.16920710931999525,-0.04855454779686544
0.1849054579095345,-0.042889314592866386
0.18290678225936804,-0.043601571860797696
0.18096267608400926,-0.04427733840264012
0.23268876818781148,-0.025519459417226623
0.23373736858632307,-0.025127734203909555
0.3495237951764447,0.046205019149407264
0.34374820422425945,0.03968299744906073
0.34278622035696477,0.03839326156983813
0.30334048412348225,3.577119963068857E-4
0.3515616417780578,0.04819046250773963
-0.42969155736222786,0.01920268618739984
-0.04041905928657839,-0.09551697467575723
-0.0385972872083527,-0.09623610110355922
-0.01482346830191919,-0.10469433901233938
-0.013023078690341047,-0.10532552467168019
0.019954930198252625,-0.10281765706115631
0.020932172219167357,-0.10248232023058379
0.021737549515344255,-0.10221067507856157
0.06574041166368355,-0.08618583820343614
0.06769425663888748,-0.08547693759673851
0.06389793040642439,-0.08685401464005753
0.05979112747125431,-0.08834856371636793
0.06183429120774555,-0.08760795304626798
0.05597192795858753,-0.08973237828565625
0.05802449702742714,-0.08898623758022031
0.053996328071094245,-0.09045969807169066
0.052457262864400486,-0.0910334473734175
0.08332114774012343,-0.07979509993095468
0.0848316158140729,-0.07925418659017369
0.08538832227783444,-0.0790604197571408
0.08724471720126312,-0.07842094227686945
0.08127540617194354,-0.08053644695533288
0.07547629798820801,-0.08263601140591248
0.07745876351832479,-0.08191946752872716
0.16157176983439078,-0.051395055171345225
0.16340953445036197,-0.05067724798843077
0.16545181402816864,-0.04993817385159603
0.1515602228363931,-0.05503771092161268
0.15170547542718651,-0.05498290136198328
0.1894177170948316,-0.041357070009120936
0.16721634129352325,-0.049298398806448915
0.18098421993478483,-0.04426988014995492
0.23179079122992763,-0.025856609276944203
0.23001318770302012,-0.026529209480660336
0.22790540009577612,-0.0273356969950935
0.22729327305430297,-0.02757622158102163
0.34004399657063256,0.03448731373394178
0.3036607154319185,4.6984523322340894E-4
0.3538477955597808,0.05011079267656058
