"Plane Section: Position[X] (m)","Plane Section: Position[Y] (m)"
3.5,0.002058150831327029
3.2700000000000005,0.002081544250943081
3.04,0.0021614592167305026
2.8100000000000005,0.002277057844361419
2.58,0.002462201378501291
2.3499999999999996,0.002749559141519092
2.1200000000000006,0.00311948184986687
1.8900000000000003,0.003655388279290725
1.803099187221817,0.003999999999999853
1.6600000000000006,0.004567468190907558
1.4300000000000004,0.006044468466086073
1.2000000000000006,0.007540584121771752
1.1760000000000002,0.008356633674967646
1.1520000000000006,0.009044960362358771
1.1280000000000001,0.009748875096765294
1.1040000000000003,0.010254624184656662
1.0800000000000005,0.01076142461640403
1.056000000000001,0.01120293976979727
1.0320000000000005,0.011685724175076836
1.01858419816031,0.011999999999999922
1.0080000000000005,0.012250055898931796
0.9840000000000005,0.012723936727202467
0.9600000000000004,0.013275108648226463
0.9360000000000005,0.013907283558853345
0.9120000000000005,0.01452916790451779
0.8880000000000003,0.01566239191086538
0.8640000000000005,0.017689582869952418
0.8400000000000003,0.01980131629222696
0.8371585337995142,0.01999999999999947
0.8160000000000001,0.0214490511151968
0.7920000000000006,0.023116604370604515
0.7680000000000007,0.02447860421414795
0.7440000000000009,0.025809830020466332
0.7200000000000011,0.027898774859839087
0.7190439565494193,0.027999999999999154
0.6960000000000008,0.03026825267300841
0.6720000000000007,0.033021946917841924
0.6522313314596235,0.03599999999999838
0.6480000000000008,0.03669767106261417
0.624000000000001,0.04088521866634348
0.6093346088678213,0.04399999999999774
0.6000000000000008,0.046081535136646395
0.5760000000000005,0.051880288850448125
0.5755897418455714,0.05199999999999696
0.5520000000000003,0.05883605735651881
0.54848804778552,0.059999999999996036
0.5294048736022448,0.06799999999999568
0.5280000000000005,0.06870063627313586
0.5154183432503859,0.07599999999999488
0.5083840664334554,0.08399999999999426
0.5039999999999997,0.0890597730586718
0.501265680260685,0.09199999999999325
0.4942758190213543,0.0999999999999927
0.4917010740706014,0.12166666666665966
0.49093228957877755,0.14333333333332604
0.46890013111921625,0.14333333333332593
0.45599999999999896,0.1275051532320231
0.49520384203635515,0.16499999999999304
0.45297160706144146,0.1216666666666589
0.4742782942710252,0.16499999999999285
0.4799999999999971,0.17340409576755106
-0.5752760051243069,0.05199999999999563
-0.5759999999999998,0.05178875939580256
-0.5481130127855965,0.05999999999999463
-0.5519999999999998,0.05871726739851439
-0.6089670575781819,0.04399999999999651
-0.6239999999999999,0.04081436921423161
-0.5999999999999998,0.04600574612555629
-0.5292302460211864,0.06799999999999402
-0.5159127418875458,0.07599999999999324
-0.5279999999999998,0.06864486477137285
-0.6519380136997625,0.035999999999997055
-0.6719999999999999,0.03299422202341855
-0.6479999999999999,0.036646935886465296
-0.5083802919293182,0.08399999999999253
-0.500346308000152,0.09199999999999173
-0.5040000000000003,0.08846183529572091
-0.7176011755462934,0.027999999999997912
-0.72,0.027741312787189477
-0.696,0.03018946709389793
-0.49335920216367857,0.09999999999999104
-0.4560000000000026,0.12233243288916967
-0.4555450159025319,0.12166666666665746
-0.7439999999999999,0.025551465849824144
-0.4904984017562269,0.12166666666665767
-0.4765229289424943,0.14333333333332474
-0.768,0.023911378068823354
-0.48461992896511447,0.14333333333332482
-0.48000000000000653,0.1544081545383409
-0.7919999999999998,0.02287033135213187
-0.8363205247681429,0.01999999999999877
-0.8399999999999999,0.019754028548875993
-0.8159999999999998,0.021359982179400404
-0.8640000000000001,0.018162317143827246
-0.8880000000000001,0.016150062271321472
-0.9120000000000001,0.014747125689056723
-0.9360000000000002,0.013883396525343554
-0.9600000000000002,0.013218495723125837
-1.0073911453100841,0.011999999999999619
-1.008,0.01198334148333485
-0.9840000000000002,0.012622957408583168
-1.032,0.01137404859295595
-1.0560000000000003,0.01090380089154729
-1.0800000000000005,0.010515844865989585
-1.1040000000000003,0.010058325557578782
-1.1280000000000001,0.009683985349019548
-1.1520000000000001,0.009252419670782885
-1.1760000000000002,0.008655014032679906
-1.2000000000000002,0.007710688249058186
-1.4300000000000002,0.006088166614089767
-1.806946557056063,0.004000000000000106
-1.8900000000000001,0.003675206777677017
-1.6600000000000001,0.004573858777013608
-2.12,0.003122398456942457
-2.35,0.0027361834686517937
-2.58,0.002474189396212604
-2.8100000000000005,0.0022908596102426144
-3.04,0.002157088272553366
-3.27,0.0020818727425867935
-3.5,0.00206856879553127
-0.30169052472383817,-0.08075368408178348
-0.30002366450626267,-0.08136043075689817
-0.3516049129973967,-0.036088368463719746
-0.3496312530948529,-0.038184642515782866
-0.34619448622657895,-0.04209150304744313
-0.3476993958394291,-0.040214400520088414
-0.3555104298163229,-0.03196042768315055
-0.353331622551859,-0.03427773516061746
-0.357015657719151,-0.03037083070689038
-0.29444345240582637,-0.08339317163701798
-0.2962254520610125,-0.08274423808545113
-0.29233687244481943,-0.08416032896885786
-0.2903307747601265,-0.08489090900264187
-0.28843131253182847,-0.08558263410075474
-0.2864783117353281,-0.08629384144387955
-0.28453719138458444,-0.08700072465247935
-0.2825723058488273,-0.08771626967443663
-0.28061930532255375,-0.08842749093387249
-0.30339151740777004,-0.08013272397635861
-0.2981246849589883,-0.08205249110680589
-0.345746689063011,-0.042569049786373665
-0.34430553319330154,-0.04404496361140837
-0.34244427464341665,-0.04599841925602424
-0.3437939135877976,-0.044536945031534214
-0.3594159289630683,-0.027732997675231998
-0.27874782241419094,-0.08910902331534344
-0.30347068432332747,-0.08010399152348727
-0.341841169216084,-0.04667994380807569
-0.3409492491607907,-0.04795180984696602
-0.33907968748971407,-0.04990526696646093
-0.33988846652094995,-0.049057569480502314
-0.36059324085209443,-0.026463945162150518
-0.26108934640728193,-0.09553983079662673
-0.2591363474813886,-0.09625105645066684
-0.25726779215414547,-0.09693154269617914
-0.27671330132925465,-0.08984992537759907
-0.2747603015520269,-0.09056114869387258
-0.2729676008559216,-0.09121407386707608
-0.27085432002181575,-0.09198364482031852
-0.26885038806959694,-0.09271344140847652
-0.26499534389840096,-0.09411737849818184
-0.2630569136582033,-0.0948233069947403
-0.3035804663716799,-0.08006673016423005
-0.33793570911648607,-0.05112719770763055
-0.3372407632225999,-0.05185871864385783
-0.3354587417878717,-0.053812160213652954
-0.3359829607123782,-0.053247495322514736
-0.3633213566261661,-0.023103135825318626
-0.3637872948042024,-0.02255712774338094
-0.2552303599784994,-0.09767353617638808
-0.2532773624997915,-0.09838476580433962
-0.2514881487919189,-0.09903642322649094
-0.26694833562901465,-0.09340613308620101
-0.30365761885100473,-0.08004259939854683
-0.3337813817603609,-0.05576558319252441
-0.33403023443912877,-0.055492383178345345
-0.3664932280809715,-0.01865039702908198
-0.23578785722735596,-0.10475428060242471
-0.2376534759853604,-0.10407485906764438
-0.24937138041213286,-0.09980726039996902
-0.2473700211990653,-0.10053614917731121
-0.23960646629066024,-0.10336360974181683
-0.3038084018220714,-0.07999274599686133
-0.3321340169922759,-0.05771900084337214
-0.3672266559294872,-0.017750646123221737
-0.3696128299221545,-0.014743592835185384
-0.2317945324638952,-0.10620868226911474
-0.23374750454017745,-0.10549738288713932
-0.23000885122826764,-0.10685908122627283
-0.2278885532867242,-0.10763118485690859
-0.22588976083065201,-0.10835913772812825
-0.24546541996170995,-0.10122981441068438
-0.24351243939992268,-0.10194109049180838
-0.24157670882864316,-0.10264606885443062
-0.30391906393570495,-0.07995998906621055
-0.3320775157981506,-0.057780238444067225
-0.33043481077530135,-0.059672427702769745
-0.37113208131186637,-0.0131079444408705
-0.3732030301186534,-0.010836705049288867
-0.223982617008317,-0.10905380524297686
-0.22202964262255617,-0.10976509828321211
-0.22009658916693248,-0.11046904337698972
-0.21762479166813786,-0.11136928825572386
-0.21812365781053492,-0.11118758539793927
-0.30394309894443866,-0.07996390752611661
-0.33012478515155275,-0.06000050564549267
-0.32862087505535165,-0.06162587494147273
-0.3267487628168574,-0.06357933251402073
-0.3281720308445536,-0.062087571716662224
-0.3750375708873158,-0.008826630906613099
-0.21430819139960225,-0.11257771270626302
-0.2161707850194397,-0.11189915741303368
-0.30415640192676846,-0.07990029644945285
-0.3262192663153187,-0.06411708956784459
-0.3247989963907183,-0.06553280388022101
-0.3223854258578449,-0.06748635763155389
-0.32426648614037173,-0.06605852664889537
-0.3767999455008261,-0.006929816070578276
-0.21031212282026218,-0.11403375311415498
-0.2085302618070429,-0.11468356260030282
-0.2064065454213777,-0.11545735896886475
-0.2044105159016429,-0.11618490270973912
-0.21226494890672062,-0.11332205285002146
-0.3044326444535507,-0.07981569472155262
-0.3223136248758527,-0.06754345332376269
-0.32036072685191413,-0.06882143524690598
-0.31964812397423775,-0.06943996888702338
-0.37894290818209675,-0.003688021931294345
-0.3795104913656715,-0.003023084536952901
-0.2010127180716279,-0.11742441134456783
-0.20250118680181944,-0.1168815655827753
-0.3050052484301867,-0.07961924492404165
-0.30550863862345473,-0.07943009656550241
-0.3054497053060357,-0.07945486116749124
-0.3184079014514073,-0.07050826576359967
-0.31746916677939174,-0.07139348096419004
-0.3153486555086547,-0.07334698265965356
-0.3164551017374567,-0.07233970403470186
-0.382847979450341,0.002948238235051547
-0.1888327118146147,-0.12186705809786824
-0.19078550437703057,-0.1211552657780632
-0.18725378208036783,-0.12244324372601392
-0.20054860229963298,-0.11759392922754784
-0.19861874908157376,-0.11829825574948263
-0.19469102158609378,-0.11973149464451774
-0.19283153786432677,-0.12040937015559636
-0.30561871396762247,-0.07934965632333421
-0.31450229226867804,-0.07411622552269194
-0.3126325683811304,-0.07530059014675916
-0.384666273886617,0.0047903314036455945
-0.18492774961130742,-0.12329235325477975
-0.18293433930994596,-0.12401908103307713
-0.18705465142461594,-0.12251609723251293
-0.19664371132006514,-0.11901941996197607
-0.30576419494194673,-0.07927017129144454
-0.30669062015767656,-0.07877769099690543
-0.30622189414365486,-0.07920797893111478
-0.312549387513067,-0.07535631013381736
-0.3906588783219507,0.011962814153601599
-0.17714238593983728,-0.12613150138424048
-0.17906947385963276,-0.125428010125122
-0.1732112009036974,-0.12756367467245266
-0.17516424494129118,-0.12685257289334212
-0.17135442217126923,-0.12823971062777645
-0.18102220292883264,-0.12471604345553614
-0.3105964708954353,-0.07652961504788547
-0.30970739089112187,-0.07725423477441204
-0.30864362665847334,-0.07811040185753174
-0.39109555749004465,0.012603973555180854
-0.3956093580151223,0.020417275461046713
-0.3984692645730046,0.023863293051179582
-0.40200639079054173,0.028230911883889112
-0.4062797758101212,0.03506013719615879
-0.41193668323101945,0.043857676039951284
-0.40693993806958767,0.0360442883490224
-0.1693051307931148,-0.12898592756076704
-0.16725060216377466,-0.1297343279568089
-0.16145523224318264,-0.13184519993018595
-0.1634463816570436,-0.13112028453670999
-0.41408991522573324,0.04835022710520073
-0.4155298371819745,0.05167081441213757
-0.46783681222650403,0.1532426072587108
-0.468758481204043,0.15494805920469074
-0.460087221468933,0.13761623045887372
-0.15172859957864454,-0.135388219168045
-0.14987542915944368,-0.13606484644841887
-0.15954025530760005,-0.13254238299538362
-0.15758720008032606,-0.13325345404810246
-0.15566227592095672,-0.13395443526838816
-0.16548711116219061,-0.13037695053832127
-0.4184968335982871,0.05948384156047832
-0.43217835479193384,0.09073627229065746
-0.4375186278081112,0.09782288618857865
-0.4439369588389602,0.10636336120819864
-0.45313981738146725,0.11927585549288222
-0.4553306400945867,0.12199038530480896
-0.15368136381655317,-0.13467634907031278
-0.14809653331156863,-0.13671552607225415
-0.42189884570550995,0.06844627025857258
-0.4258013873028616,0.07511013930875174
-0.1457746734021498,-0.13756941195244032
-0.14782447419993539,-0.13681581221149453
-0.14197003045648282,-0.1389619916215073
-0.1440118793781449,-0.1382146659830409
-0.1404190251416264,-0.13952995293841636
-0.13998323229224896,-0.13969082194018773
-0.13806889549897555,-0.14039779624067755
-0.1361191430787,-0.14111793666788386
-0.13519542716083166,-0.14145998483047859
-0.1302719721962021,-0.14328408706009133
-0.12842277272250124,-0.1439622500481476
-0.12636673460466719,-0.14470862601208395
-0.13420455393605063,-0.1418388221766513
-0.1322233211684227,-0.14256833069996966
-0.0990034612417498,-0.1546073280814544
-0.09702124306733698,-0.1553326286252142
-0.10877664647006843,-0.15107369086467498
-0.10692589738388794,-0.1517381770733387
-0.10281626594362825,-0.15322157058493496
-0.1034709324784083,-0.15298539185714538
-0.10105013308067534,-0.1538591176579095
-0.11463703076894152,-0.14894382397969616
-0.11540625591121889,-0.1486666351825992
-0.11271693080159537,-0.14964107746647468
-0.11073042801943567,-0.15036461426306796
-0.12431492278945167,-0.14544891270695914
-0.12050228058193221,-0.1468273175998182
-0.11850273843224388,-0.14755109773750175
-0.09509890438675668,-0.15603373630845602
-0.09314600902145041,-0.15674524633567297
-0.10486514127327079,-0.1524810192259599
-0.11659247507365259,-0.1482393132370486
-0.12254914898377933,-0.1460867106359843
-0.09122926837660703,-0.15744319991256298
-0.08728707179886698,-0.15887908683363858
-0.08923993718235398,-0.15816749447756764
-0.08544177840066805,-0.1595490773181214
-0.08338084026231343,-0.16030089645277174
-0.08243102464735488,-0.1606475247108431
-0.08133688273893634,-0.16104714501631365
-0.07554661205883784,-0.16317098587344359
-0.07752386141735597,-0.1624401145765381
-0.0795730325444586,-0.16169170431246344
-0.07478108721142665,-0.16346116005794986
0.2961332483768698,-0.0828723951193839
0.29501888868925985,-0.08327844545018204
-0.07363148887601981,-0.16389998043628923
-0.0716835912789554,-0.16462521413306166
-0.07103498637313987,-0.16486700316662772
0.010950401491614534,-0.1865930979236422
0.01111599441086727,-0.18653299146696664
-0.0044882619291327485,-0.18898751833302213
-0.003412227525539194,-0.1893786389529506
-0.0072152566819077175,-0.18799694982417772
-0.005337440862780626,-0.18867908711549095
-0.0016583712542010106,-0.19001755158247818
-0.0013127060973207477,-0.19014396497077346
-0.00934621402663698,-0.1872238719404107
-0.009158036395787645,-0.1872920465365552
0.020854934865078622,-0.18299577068703105
0.02236851646416945,-0.18244789202517028
0.016745794688247467,-0.18448748615340893
0.018783392770183427,-0.18374725202261658
0.29803632874728847,-0.08217940262795087
0.29435098695422823,-0.08352281956241717
-0.06977522039458686,-0.16533760059774516
-0.06855716983246843,-0.1658317835436403
-0.02283181386407359,-0.18233225204858122
-0.020994615859858873,-0.18299568930688023
-0.02373965690385882,-0.18200274481663736
-0.0345631052567449,-0.17810141344812325
-0.03258506630541393,-0.1788139275615018
0.012923275941233183,-0.185877281617498
0.014980182351845445,-0.18512942510471098
0.009020126038753646,-0.18729374525432974
0.0070788351318883825,-0.1879984247179074
0.0052004534183727625,-0.1886811182856622
-6.985328630947954E-5,-0.19060034770334722
-0.012623441531768746,-0.18603862067896795
-0.011089852121655613,-0.18659368365750384
0.026641164609420283,-0.18090596505532552
0.024646950093583433,-0.18162611101280568
0.022691782831984093,-0.1823313763024141
0.29993725380973957,-0.08148576542973981
0.29224597763612803,-0.0842946719353331
0.29024133489155335,-0.0850291261744554
0.2863899838453643,-0.08643502237076169
0.2883425293102533,-0.0857225783136457
0.2858196860923419,-0.08664332649521998
-0.06784201307077953,-0.1661858688471884
-0.06483869313874005,-0.16742006058308195
-0.06406947986437131,-0.16766697471730502
-0.018922656675212254,-0.18374602736834134
-0.01688561836234169,-0.18448779861133885
-0.03023512073579116,-0.17965578051692466
-0.028695118858439166,-0.18021040527536225
-0.026785226408818592,-0.1809014333512909
-0.024786267807087238,-0.18162502181274479
-0.036442802404821714,-0.17742286720656134
-0.030651234045276955,-0.17950773674791798
-0.044358129769008804,-0.17462774602220557
-0.04251356920275096,-0.1752806212109474
-0.038390501122726045,-0.1767322771308151
-0.040135475732889406,-0.1761197214551711
0.003274767419176546,-0.18938123591796066
0.0015202088782113464,-0.19002289494717625
-0.01512081068964391,-0.18513198345438076
-0.013063775751742043,-0.18587970976443638
0.02855770321686208,-0.1802167311637652
0.026646469366544683,-0.1809040677144123
0.08532098319954098,-0.1596010856773778
0.08716575965196019,-0.15892967571363115
0.20845210688639348,-0.11485272549857997
0.20998819511983752,-0.11429783690186482
0.2056176504890705,-0.1158877059310009
0.20632803525189827,-0.11562554609672501
0.3016165973056897,-0.08087434946172636
0.2844503480606298,-0.0871459852684025
0.28286970004273254,-0.08774418350033955
-0.05992023344018546,-0.1690449759744991
-0.06156770215979898,-0.1684707934842797
-0.045289161778825505,-0.17430532679199506
-0.06783022761871599,-0.1661921968033931
-0.06657945087626561,-0.16678612638726087
-0.06197185768806061,-0.16832759506205225
-0.06594026046608675,-0.16707650515876887
-0.036619919283570314,-0.1773598675197714
-0.04043822662313094,-0.1760120139547986
0.030513021002021322,-0.17951187966291057
0.10269872483814081,-0.15328252081870236
0.1046282476961955,-0.1525829138495409
0.09110780938142893,-0.15749338408701247
0.09302568330068818,-0.15679854556800704
0.08911860134017177,-0.15821801743081304
0.08325931335326318,-0.16035089500858463
0.081214774068052,-0.16109554656552572
0.19409658532512913,-0.12014113565191523
0.19462680602804672,-0.11993898740806097
0.1770681836286379,-0.1263115531224437
0.17900034363498335,-0.1256220029721484
0.2102363513206227,-0.11420946679314949
0.20434493040482882,-0.11638862074194092
0.20117337075552794,-0.11756681987844897
0.20048770632719098,-0.11781054207105945
0.19855377197732846,-0.11850365144813761
0.212194840680499,-0.11351333394022686
0.2141290964609986,-0.11285392736978161
0.3496442700379697,-0.038308854245825974
0.35152004807958637,-0.036369933263205825
0.3462167941561144,-0.042214495487748444
0.3476130822343976,-0.04039958436777383
0.30329363980674184,-0.08025193814952747
0.28836031390948286,-0.08577146727492678
0.286406043686916,-0.08647917074798314
0.28730492230508886,-0.08617240166063943
0.28836490321425245,-0.08578408304209068
0.2844637299476791,-0.08718277202383465
0.28249818736384646,-0.08789651095535997
0.28249463490204935,-0.08788674525013784
0.2824938502695385,-0.08788458829807293
0.2956541184409586,-0.08319764457281416
0.29439845468262144,-0.08365251534854566
-0.058159840785739395,-0.16969978281966286
-0.05741052821989249,-0.16998471737022525
-0.046325353784371984,-0.17395558188881638
0.036483684660628166,-0.1773694730839639
0.036717111673532844,-0.17728688578380628
0.03825555762325449,-0.17674544844242648
0.040113466881236785,-0.17609301166299912
0.034424836097796986,-0.17810541917260336
0.03192151481158341,-0.1790036324005611
0.03244615954640971,-0.1788161732667911
0.10110668516990778,-0.1538639494338261
0.10474689981116722,-0.15254004923863498
0.09690311774908032,-0.15539197465901466
0.09781090263042092,-0.1550628532384966
0.09497991812313136,-0.1560907170063764
0.07945047076827817,-0.16173886278679067
0.0775206060556191,-0.162443835894337
0.07740141706638343,-0.1624875983649363
0.07542395897056872,-0.16321790679208242
0.11647946329482944,-0.14831274569937256
0.11452163237882855,-0.14901068861221903
0.1125993794799344,-0.14970202212950273
0.10680655263540353,-0.15179418119813545
0.1086567818048625,-0.15112827465737283
0.12244782749966507,-0.14619229476515863
0.12039315998005906,-0.14691145769199224
0.11660936420178147,-0.14826616895104483
0.11839136789320462,-0.14762904886014844
