"Plane Section: Position[X] (m)","Plane Section: Position[Y] (m)"
3.5000000000000004,0.0019479021268502105
3.2700000000000005,0.0019709946155397453
3.04,0.002047269875369884
2.81,0.0021568622718312904
2.58,0.002333487629158208
2.35,0.002609299287322989
2.1200000000000006,0.0029619793077928468
1.8900000000000003,0.003459475471246325
1.7428441775701558,0.0039999999999998665
1.6600000000000006,0.00431110780446271
1.4300000000000002,0.005722304011174798
1.2000000000000006,0.0071622597795452025
1.1760000000000002,0.007914687713059575
1.1520000000000006,0.008544807462211347
1.1280000000000001,0.009245295400277636
1.104,0.00977277111942573
1.0800000000000005,0.010245895394250469
1.056000000000001,0.010589056482141498
1.0320000000000005,0.01099823153235304
1.0080000000000005,0.01153234297699424
0.986210066118927,0.01200000000000007
0.9840000000000005,0.01204870533311517
0.9600000000000004,0.012645474079896496
0.9360000000000005,0.013298780165336564
0.9120000000000005,0.013974944378910484
0.8880000000000005,0.015102986533792787
0.8640000000000005,0.016833980452153202
0.8400000000000003,0.0185392428514592
0.8160000000000001,0.01979810405037235
0.8126187906792842,0.019999999999999546
0.7920000000000005,0.02121076585053592
0.7680000000000005,0.02265331201017315
0.7440000000000007,0.024164753318275004
0.7200000000000009,0.026075964454192187
0.6989424102775093,0.027999999999998956
0.6960000000000008,0.028288095175904835
0.6720000000000007,0.030966463777695526
0.6480000000000008,0.03426724583946291
0.6380793409708496,0.03599999999999834
0.6240000000000009,0.038424545293442386
0.6000000000000008,0.042944663500014996
0.5958348466350802,0.04399999999999765
0.5760000000000007,0.04863316796152023
0.5638905475849179,0.051999999999997035
0.5520000000000005,0.05539019352748318
0.5381846970321922,0.05999999999999601
0.5280000000000004,0.0640002367450693
0.5182679506577375,0.06799999999999551
0.5072311203681354,0.07599999999999485
0.5040000000000002,0.08055727030882298
0.5015099192617317,0.08399999999999413
0.49303738046414414,0.09199999999999309
0.48725676194655265,0.09999999999999255
0.43209714506041047,0.09199999999999267
0.4319999999999995,0.09184992108341
0.4858318604834781,0.12166666666665965
0.4409867582195921,0.09999999999999216
0.4885777476432098,0.14333333333332599
0.4502616354017508,0.12166666666665887
0.46213339299887746,0.14333333333332599
0.45599999999999835,0.13671390564889835
0.49153875438367634,0.16499999999999299
0.46832931311772086,0.16499999999999282
0.47999999999999704,0.17533355240656062
-0.5955964146892188,0.04399999999999642
-0.5999999999999998,0.042882676125854266
-0.5636700145781439,0.05199999999999551
-0.5759999999999998,0.04859492180628815
-0.5379656092607397,0.059999999999994696
-0.5519999999999998,0.055308587036930396
-0.5186246003805173,0.0679999999999939
-0.5279999999999999,0.06403253412445054
-0.6377885194096854,0.03599999999999699
-0.648,0.03423396761185637
-0.624,0.038360603730602086
-0.5079676176636179,0.07599999999999318
-0.5004993060395322,0.08399999999999244
-0.5040000000000002,0.08032199735709447
-0.6719999999999999,0.03095778925580498
-0.49145756047662315,0.09199999999999167
-0.6982952071932387,0.027999999999997888
-0.72,0.025948213548173775
-0.696,0.02823393738241769
-0.48629266555628514,0.09999999999999098
-0.456000000000003,0.12550474047076535
-0.4541779855157355,0.12166666666665746
-0.744,0.02396618166281088
-0.48518113614957686,0.12166666666665758
-0.47139505032662277,0.14333333333332465
-0.768,0.022332983673534604
-0.4858326311344666,0.1433333333333248
-0.4737272068377325,0.16499999999999132
-0.8085438755913142,0.019999999999998727
-0.8159999999999998,0.01955146562088724
-0.7919999999999998,0.02098505946672793
-0.4862692996234296,0.16499999999999146
-0.48000000000000864,0.17271185385475565
-0.8400000000000001,0.01837208930442804
-0.8640000000000001,0.017107500072950553
-0.8880000000000002,0.015504113050162999
-0.9120000000000001,0.014178815371375704
-0.9360000000000002,0.013300766585763617
-0.9821464760525178,0.011999999999999587
-0.9840000000000002,0.011947964537988316
-0.9600000000000002,0.012606959662123232
-1.008,0.011334971021712383
-1.032,0.0107812962883231
-1.056,0.010342710256947364
-1.08,0.009983689736997993
-1.104,0.009551127848028768
-1.1280000000000001,0.009206914392528352
-1.1520000000000001,0.008763891332139432
-1.1760000000000002,0.008205346591936467
-1.2000000000000002,0.007332736950551665
-1.43,0.005762576565233267
-1.7451291955888948,0.004000000000000092
-1.8900000000000001,0.003476902498420164
-1.6600000000000001,0.004313926483693816
-2.12,0.0029638411978951816
-2.35,0.0025966611902414312
-2.58,0.0023453334162969507
-2.8100000000000005,0.0021704934305238296
-3.04,0.0020425042047837534
-3.2700000000000005,0.00197070761740582
-3.5,0.001958045379430888
-0.3016877869541326,-0.07642270668825824
-0.3000209349115338,-0.07702946392572561
-0.3516024855480038,-0.032681437005801985
-0.35055860614715084,-0.033853666136415404
-0.34665705642330163,-0.03776059692990536
-0.34769693744766617,-0.03670463578636454
-0.3555079682007406,-0.028283132725602397
-0.35394687415937154,-0.02994682489921997
-0.35760157755794775,-0.026039937174941963
-0.29444071311867437,-0.07906217931244765
-0.2962227159673988,-0.07841325453466377
-0.2923341297044897,-0.0798293271415297
-0.2903280283942619,-0.08055989721657199
-0.2884285658543646,-0.0812516214581715
-0.2864755653469214,-0.08196282959485678
-0.2845344434701133,-0.08266970861278451
-0.2825695549418182,-0.08338524541721584
-0.28061655212734776,-0.08409646039327623
-0.3033888936553234,-0.07580184130849749
-0.2981219523776835,-0.07772151690680246
-0.3457441597374247,-0.038695257905103586
-0.34480520254930935,-0.039714045067129576
-0.3429831208095464,-0.04166748800977285
-0.3437913938237616,-0.04075349077557666
-0.3594134826284342,-0.02406694295062417
-0.2787450664493547,-0.08477798516933885
-0.30342983066352636,-0.0757869855335104
-0.34183867610994173,-0.04308797554189775
-0.3414295281080683,-0.04362088410702427
-0.33965890840844504,-0.04557431807068442
-0.33988594246537573,-0.04533115504377632
-0.3611871678846197,-0.022133061509364824
-0.26108656805430325,-0.09120873117418322
-0.25913356649265645,-0.09191994959050366
-0.257265008401373,-0.09260042824612977
-0.27671054318086913,-0.08551888123552205
-0.27475754086899373,-0.08623009759168918
-0.2729648341671982,-0.08688300627402276
-0.27085155157637736,-0.08765257240316222
-0.26884761692145004,-0.0883823615699391
-0.26499256892748707,-0.08978628816278522
-0.2630541375016171,-0.09049221340359971
-0.30353638658226606,-0.0757509691894213
-0.33799782275877654,-0.047527732923074224
-0.3633189743297093,-0.019720499367720145
-0.36466649654476324,-0.018226204384097448
-0.25522757331557067,-0.09334241373528397
-0.2532745745246362,-0.09405363975994178
-0.251485358983002,-0.09470529214730194
-0.2669455620541085,-0.08907504658400453
-0.30358579516023254,-0.07573719302778043
-0.3379332130757328,-0.04759872115830434
-0.3363266430528482,-0.049481149536658095
-0.3345430776923568,-0.051434585759043056
-0.335980481182042,-0.049851935629959356
-0.3672244150197673,-0.01508169075455311
-0.3678810634080415,-0.014319393453901787
-0.23578504810990764,-0.10042309650476597
-0.23765066943130103,-0.09974368200884254
-0.2493685854851636,-0.09547611526645818
-0.24736722218583546,-0.0962049928234557
-0.2396036603717306,-0.09903243442681678
-0.30367586767175087,-0.0757102205529476
-0.33268511406559087,-0.05338803496228551
-0.3340277256431988,-0.05196963061334909
-0.37046872293786404,-0.01041269190516116
-0.23179171762966563,-0.10187748247458608
-0.23374469131541586,-0.10116618751144149
-0.23000603699329641,-0.10252788307823457
-0.2278857359416836,-0.10329997816827766
-0.2258869355294679,-0.10402790919249652
-0.2454626156239963,-0.09689864343645037
-0.2435096320977139,-0.09760991137762914
-0.2415739025146674,-0.09831489245430748
-0.3038135251431307,-0.07566787240756885
-0.33207495752937627,-0.0540152535120388
-0.3307922258188411,-0.05534149025910058
-0.371129697218858,-0.009534509181102796
-0.37333982277847894,-0.006505940902355935
-0.22397978873867835,-0.10472256855725214
-0.22202681857003218,-0.1054338731783114
-0.22009376532212133,-0.10613781884234186
-0.21744583405453727,-0.10710219965144008
-0.21812082950842762,-0.10685634862413895
-0.3039292918750617,-0.07563721332627342
-0.3301221829735582,-0.05602395488134231
-0.3288756692935897,-0.05729494968550426
-0.3269357124278932,-0.059248413194747954
-0.3281694039112859,-0.05800682799190912
-0.3750350975025505,-0.0046641160997252145
-0.21430535558940664,-0.10824645532098115
-0.21616794339407588,-0.10756788405716944
-0.3040912423608846,-0.07559392399242247
-0.32621662076193536,-0.0599662764451062
-0.32496118983529687,-0.06120188273494849
-0.3229277329862492,-0.06315536255786788
-0.3242638307168503,-0.06188620276703555
-0.3769761457056865,-0.0025990563850648613
-0.21030924301293538,-0.10970237492021291
-0.2085273883766845,-0.11035220192530282
-0.20640367773262203,-0.11112601406372069
-0.20440761208686745,-0.11185345860866117
-0.21226210321057967,-0.1089907683202593
-0.30439199416535484,-0.07550028453857016
-0.3223110296392397,-0.06374289747826759
-0.32035812727708546,-0.06501909131266773
-0.32022695254347083,-0.06510895881398088
-0.37894046719089464,3.8163078098004923E-4
-0.3797316217967389,0.0013076744439525442
-0.2006672664252967,-0.11321789521361716
-0.2024982527602923,-0.11255003849106943
-0.30502155500737227,-0.0752802572868485
-0.3055522481351103,-0.07510216821547124
-0.3055106960310413,-0.07511266149474738
-0.31840522894194734,-0.06631836555009504
-0.31759618973068626,-0.06706254285357224
-0.3154473798973619,-0.06901604280303575
-0.31645241468883073,-0.06809954633234114
-0.38284587164316464,0.005228132168027881
-0.18882974734131797,-0.11753544750885578
-0.19078255129653945,-0.11682368646796348
-0.1870516010006677,-0.11818425063735775
-0.18647334800386167,-0.11839508508813434
-0.2005456430049523,-0.11326233280220095
-0.19861577250917625,-0.11396661189302101
-0.19468808887175584,-0.11539997124661588
-0.1928285935021607,-0.1160778147790425
-0.30565707439083856,-0.07502154205661513
-0.31449959873557937,-0.06987098301421754
-0.31280458028965513,-0.07096962894277552
-0.38672567037201055,0.009121394869469944
-0.18492468316134686,-0.11896046266714767
-0.18293135206656366,-0.11968740795246031
-0.1966407384818086,-0.11468778637599022
-0.30577366753813345,-0.07494679112387762
-0.3066878881946963,-0.07439635963442875
-0.30621272465267246,-0.07487702913508326
-0.31254669556147574,-0.07114252328181844
-0.39065645847515673,0.016193918473339647
-0.17713934737151826,-0.12179968739344632
-0.1790663945034482,-0.12109608411665207
-0.1732083244324285,-0.12323230580277214
-0.17516133082701674,-0.1225211006576668
-0.17135154318283738,-0.12390833484473371
-0.18101919690789164,-0.12038431881736536
-0.31059376291860774,-0.07224516666767114
-0.30970396058360516,-0.07292329496198513
-0.30864089620345125,-0.07372566723552015
-0.3911169362457432,0.01693466116703604
-0.3952886833254271,0.024747889163429494
-0.39846679006950236,0.028622570262844156
-0.40168570485802824,0.03256150542094122
-0.40627748950242476,0.03894299713120686
-0.41105590956593596,0.04818814055199508
-0.407395415515541,0.04037500175792667
-0.1693022280495639,-0.124654486545859
-0.16724766105067873,-0.12540278158140897
-0.16145235017681892,-0.12751381569955378
-0.16344344884043477,-0.1267887609483272
-0.4135752666538587,0.056001080242927354
-0.4524181006923289,0.12632035852755683
-0.4531367872634932,0.12894268215859914
-0.46403954165647776,0.15757238668729573
-0.4687555096989375,0.1649231923008655
-0.4566286583652756,0.1419460934144435
-0.151725574694953,-0.131056442770534
-0.14987229643031863,-0.1317327739240247
-0.15953739292523939,-0.12821105281508452
-0.15758432209974632,-0.1289220810338133
-0.15565934886570656,-0.1296229274955638
-0.16548415684435602,-0.12604536790645898
-0.41408681683402637,0.05712746665310618
-0.41770661293815486,0.06381430119027953
-0.4314339448685546,0.09506669678136424
-0.4375163286017889,0.102913155398481
-0.4435903981925047,0.11069381805111791
-0.14742961034331895,-0.13262589056384444
-0.1478209444523843,-0.13248264951508804
-0.153678361559858,-0.13034463479988645
-0.4218961038315666,0.0755431061538617
-0.42417022739436205,0.07944042918569011
-0.14577120328839113,-0.13323641307127534
-0.14196669085376504,-0.13462935118285388
-0.14400858645901693,-0.13388215370447623
-0.1399793408009479,-0.1353566660687947
-0.13961706523008816,-0.13548946611770152
-0.13806471758901084,-0.13606285395257578
-0.13611451264746005,-0.13678175184987468
-0.1341956114653494,-0.13749079676119655
-0.13026812658149317,-0.13895005765601673
-0.12841917118571813,-0.13962889091978356
-0.126364838587938,-0.14037995019822974
-0.1340502953311624,-0.13754445150933428
-0.1322193375355613,-0.13823392225548464
-0.09900034668887701,-0.15027530561121027
-0.09701842263782828,-0.1510014138434952
-0.10692531104767355,-0.1474130971899828
-0.10877423682146412,-0.1467436042723434
-0.10104820583868546,-0.14953035550243188
-0.11271398173350532,-0.1453095096555861
-0.11460721521907453,-0.14462499596776368
-0.11072738778770866,-0.14603279611904058
-0.12431389100486058,-0.14112261000299153
-0.1205005839645868,-0.14249918918717752
-0.1185008913356845,-0.1432225560729638
-0.09509603392774789,-0.1517023841554946
-0.09382998479485644,-0.15216364823155637
-0.10486312241581675,-0.14815200559267389
-0.10270352211574534,-0.14893219132545638
-0.10281409649167704,-0.14889214337284973
-0.11659175453778227,-0.14391386502852282
-0.11463505858293019,-0.14461493869100553
-0.12254770898375104,-0.14175928693256906
-0.08816347404817029,-0.15422720920207733
-0.08923706304150324,-0.1538361322151865
-0.08703265374525218,-0.1546390175875355
-0.08543913925300954,-0.155218360330102
-0.08337803070366533,-0.15596971152962338
-0.08296705583602873,-0.15611957759039358
-0.093143239630867,-0.15241417171805322
-0.08956901618004996,-0.15371535596197441
-0.09122667951045381,-0.1531126210120258
-0.08728415564049698,-0.15454760919533517
-0.08133389613055125,-0.15671547393343266
-0.07752053472131354,-0.1581075096554731
-0.07554141170918527,-0.15883323601848742
-0.07956998906899246,-0.15735987709254476
-0.07403766611077384,-0.15939912097591244
0.29613584297974266,-0.07853916886939002
0.29435311650621954,-0.07918831279524899
-0.0736245896388738,-0.1595575657323744
-0.07167923454805046,-0.16028978125425014
-0.0697674490001195,-0.16099279124963406
-0.06951570238343577,-0.1610874949773969
-0.004255813878368155,-0.18473914849119136
-0.003409195375427489,-0.18504686816140067
-0.0072122767719677025,-0.18366530272721276
-0.005334438225804067,-0.18434738557467473
-0.0016553297978092957,-0.18568581698642336
-0.0014304967631553348,-0.18576803811825396
-0.009025570763250033,-0.18300763729137226
0.02085824342176275,-0.17866449542713175
0.021838742780820812,-0.1783097322517385
0.016748907007808997,-0.18015567147046646
0.018786548442694603,-0.1794155565068706
0.29803907222592046,-0.07784657116439865
0.29368105473592065,-0.0794332630167761
-0.06778453771956697,-0.1617432650196543
-0.06699639864701706,-0.16206737474125354
-0.0225953385755975,-0.1780865174856369
-0.020992264584715817,-0.1786657626131213
-0.034501688792627466,-0.17379685237929135
-0.03258343048184105,-0.1744859658266807
0.012926445806622751,-0.18154562522550588
0.014983302863026515,-0.18079763295220577
0.00902327990713529,-0.18296204671150207
0.010765694018205294,-0.18232958436119862
0.010953601639878097,-0.18226152537496867
0.007081946116983106,-0.18366660991879316
0.005203539393960151,-0.18434923495525063
-6.677779849209E-5,-0.18626883894621707
-0.012290002481810114,-0.1818270575316376
-0.011087046411314598,-0.18226250980538655
-0.009155192668135725,-0.18296077110332554
0.024650425503979168,-0.17729529434408992
0.02612704421167202,-0.17676209581258728
0.02269539865747161,-0.17800094568221186
0.2999399669101519,-0.07715286534202269
0.2922474372466517,-0.07995831677613266
0.2902429562452963,-0.08069321297300074
0.2863921842796633,-0.08210070063118399
0.28834450380212007,-0.08138763551796815
0.2844515899482774,-0.08280902846465912
0.28437816271410365,-0.08283589628604476
-0.0662256196695146,-0.16244171320687795
-0.06589099767796602,-0.16261776396660962
-0.06459494724444148,-0.16317601998636316
-0.018920083990776597,-0.17941549265170903
-0.022829673691920346,-0.17800290508936373
-0.0168826650739814,-0.18015621876158536
-0.029599630591873677,-0.1755542774884679
-0.028692814879724894,-0.1758806086214171
-0.0267826193483494,-0.17657080440002948
-0.02478391422095686,-0.17729508886076495
-0.03064955697611406,-0.17517966166297574
-0.034562268298266,-0.17377564545379193
-0.04269015619157003,-0.17091892651858823
-0.04252102399768346,-0.17097762290435395
-0.03839389722486171,-0.1724181332773481
-0.038560685439721167,-0.1723603165888719
0.003277827442223302,-0.1850492704478538
0.0015232734847655043,-0.185690924338329
-0.015117886524319925,-0.18080048359596612
-0.013061026652820395,-0.18154869076006186
0.026650287682081747,-0.1765741936353824
0.028561301077835458,-0.17588625099328087
0.08532415630695636,-0.15526943758481251
0.0871687864302617,-0.15459762536967564
0.2063309377931678,-0.11129315385090802
0.20433486232177148,-0.11202057228331691
0.3016187838368938,-0.07654064774578286
0.28248914332471187,-0.08353127810140547
0.28059699965880025,-0.08423912331567454
0.28054858729511273,-0.08427670927505186
0.28054244639144427,-0.08425982811765037
0.28054232275373125,-0.08425948824133803
-0.06331588621120084,-0.16364181287816207
-0.061997511731107825,-0.16407457279658455
-0.0640880644540569,-0.16339454072206525
-0.03662128646846243,-0.17304015213811302
-0.04044377488930931,-0.17170378013499793
-0.04437342208900475,-0.1703462696167237
0.030516935457583917,-0.17518226974556633
0.09111142897679095,-0.15316296339895055
0.09302964783707271,-0.15246907308782426
0.08912157744315997,-0.15388582779297622
0.08326251305347779,-0.15601932002025476
0.08121785052578337,-0.15676363277949532
0.07626215935177127,-0.15857055070708503
0.0774034961620019,-0.15815294281866163
0.19463024466787418,-0.1156080683881764
0.1927721629426385,-0.1162897989859666
0.17792847666386155,-0.12169116192059728
0.17707589224540074,-0.12199237226705689
0.2083773255677311,-0.11055228087071955
0.20845643967408775,-0.11052426495793712
0.21024789048996073,-0.1099008163262275
0.20365520627920408,-0.11227005874208565
0.2009209763473938,-0.11332711926294804
0.2024322266219162,-0.11273563677447639
0.21143975911391505,-0.10950067372736666
0.3507785915262114,-0.03397603394888971
0.35152244742325967,-0.033126936435999184
0.34668977906048937,-0.0378815706010969
0.34761550847736666,-0.03707521075286633
0.3032930225907002,-0.0759167703407235
0.28477588065386106,-0.08276057564154742
0.28501703215472307,-0.08265646641316796
0.284467310635001,-0.08285224414753883
0.28250702723103704,-0.083580440415931
0.2961746131197641,-0.07864282454851813
0.29439647755214354,-0.0793067915541408
-0.0581535204673317,-0.16535895925091232
-0.05942709098427538,-0.16491751870323992
-0.05992681128942395,-0.16473957048106394
-0.05610421505229868,-0.16611406269366746
-0.05501430334153003,-0.16652451404090649
-0.04581881529669726,-0.16987321504624686
0.03826449259068942,-0.1724296393256906
0.038681223687523594,-0.1722830824146873
0.034429682409285726,-0.17377837075553748
0.03560959371900132,-0.17335884244463362
0.031015810892513887,-0.17500219171429302
0.032450563261853485,-0.17448790824489285
0.10270257257300847,-0.1489527272309113
0.10475118907263709,-0.1482114693715635
0.09469730531856198,-0.1518643487112796
0.07945333905306298,-0.15740637672654595
0.07542446016773982,-0.15887891355596762
0.11260488225935802,-0.14537677802631652
0.11440424933760053,-0.144737116320474
0.10681128508050935,-0.14746681960017258
0.10866110132270325,-0.14679977787295367
0.12245427149831221,-0.14186963741388664
0.12040647390565186,-0.14260768580579286
0.11839839811456496,-0.14330800335398977
0.16337360715345223,-0.12696389336409178
0.16138494074283186,-0.12769563464445288
