"Plane Section: Position[X] (m)","Plane Section: Position[Y] (m)"
-3.5,3.8888732723819865E-4
-3.27,3.9188593276379304E-4
-3.04,4.0619434745861225E-4
-2.8099999999999996,4.3226481084313164E-4
-2.58,4.709281999294767E-4
-2.35,5.270940585884517E-4
-2.12,6.079476320345523E-4
-1.89,7.252863524387675E-4
-1.66,9.016050287561381E-4
-1.43,0.001170649242279912
-1.2,0.0014694767655897868
-1.176,0.0016444292053879712
-1.1520000000000001,0.0017034966932410775
-1.1280000000000001,0.0017684326156769995
-1.104,0.0018418926357059214
-1.08,0.0019179488327752607
-1.056,0.002005324655054972
-1.032,0.0020932092172229674
-1.008,0.00219120013099093
-0.984,0.0022960757341461665
-0.96,0.0024082444579573334
-0.9359999999999999,0.0025341515501843496
-0.9119999999999999,0.0026663545223636082
-0.888,0.0028123222815587883
-0.8639999999999999,0.0029723660212784483
-0.8400000000000001,0.0031463452772169274
-0.8160000000000001,0.0033420823748927563
-0.792,0.0035494344853686938
-0.768,0.0037884682846265616
-0.744,0.004051690944202411
-0.72,0.004348629270346642
-0.6960000000000001,0.004678451335408236
-0.6719999999999999,0.005052877806961417
-0.648,0.005484046065699133
-0.6240000000000001,0.005980806433146227
-0.6000000000000001,0.006532963004376364
-0.5760000000000001,0.007248910903050283
-0.552,0.007970590751573449
-0.528,0.008969439850371484
-0.5122062310351712,0.009999999999998323
-0.504,0.010550391504135205
-0.48,0.012594114302469263
-0.45599999999999996,0.012321441935626265
0.48,0.012635418852599417
0.45599999999999996,0.012258470442339325
0.5039999999999998,0.010597462395638177
0.5127172231878718,0.009999999999999929
0.5279999999999998,0.00897957344333004
0.5519999999999996,0.007969829183485582
0.5759999999999996,0.007240020509506881
0.5999999999999996,0.006540937720817871
0.6239999999999996,0.0059820083939431685
0.6479999999999995,0.0054788480344401
0.6719999999999995,0.005060134484610756
0.6959999999999995,0.004675723342470497
0.7199999999999993,0.004348189085557256
0.7439999999999993,0.004051932261726005
0.7679999999999995,0.003785770654188947
0.7919999999999994,0.003551971360667778
0.8159999999999994,0.003341273326170023
0.8399999999999996,0.0031459379660235542
0.8639999999999994,0.0029720279522581694
0.8879999999999995,0.002812257411236512
0.9119999999999995,0.002666070542937037
0.9359999999999995,0.0025325585689635562
0.9599999999999995,0.002409484239654066
0.9839999999999993,0.0022948972998864036
1.007999999999999,0.0021905873687461594
1.0319999999999994,0.0020925842325512306
1.0559999999999994,0.0020027868642544773
1.0799999999999994,0.001917099448184421
1.1039999999999992,0.0018398220961148794
1.1279999999999994,0.001768013057937108
1.1519999999999995,0.0017072955943412383
1.1759999999999997,0.0016444277445673279
1.1999999999999997,0.0014670068419200097
1.4299999999999997,0.0011702938935038464
1.6599999999999997,9.016287167662057E-4
1.89,7.249256420060897E-4
2.1199999999999997,6.076548611043373E-4
2.3499999999999996,5.269280875111878E-4
2.58,4.7067629609190724E-4
2.81,4.320208821459616E-4
3.0399999999999996,4.061569023554467E-4
3.2699999999999996,3.9168344852756035E-4
3.5,3.8846905775176356E-4
0.3048440958963696,0.017349744483151967
0.30500390010373923,0.017350434705325938
0.30487064409659337,0.01730266278468535
0.3694745383147143,0.04501069803196037
0.369140625,0.04458028473538974
0.30502822812303826,0.017354721863002187
0.30501916072326807,0.017355321453961545
0.36808071143865295,0.04305757303196038
0.3671875,0.041487228768050624
0.3710936210611943,0.04696382303196034
0.3045954454846927,0.017197900970126696
0.3050306316063264,0.01736034060026654
0.30340079778880247,0.01675123789327139
0.30265657884595554,0.01647648313706638
0.30172678235777123,0.01613718747206285
0.3669835112899506,0.04110444803196034
0.37283526738256323,0.04891694803196034
0.37109375,0.04696399437836137
0.3002693148626763,0.015606126964407867
0.299600891582451,0.015363475340771286
0.30507976513582613,0.017368578553814185
0.3031916474794717,0.016670778778171143
0.36612692168754063,0.03915132303196037
0.37304687499999994,0.04920758846432117
0.3745272816363075,0.05087007303196035
0.37588337068995187,0.052823198031960325
0.375,0.05166420666215185
0.29856070912654414,0.014987648795268524
0.297473972222741,0.01459177225434971
0.2956275471050401,0.01391976873337403
0.2952407248265273,0.01377858913479443
0.2929349341652674,0.012937022675615055
0.29449166975474816,0.013505456675825984
0.3051370957448065,0.017383229526309163
0.36550674384298226,0.037198198031960394
0.3763378429524662,0.05477632303196034
0.29059662559274774,0.012083365749676984
0.29222676924498414,0.012678591827492407
0.2966278210741375,0.014283739022337708
0.30523533243906764,0.01740902797396288
0.365234375,0.03569013461146379
0.36516769672263627,0.03524507303196035
0.375,0.05635366343509105
0.28990041689679946,0.011829177937842073
0.2878202044960872,0.011069621025912225
0.3053704165913226,0.01745836128923492
0.365168544037366,0.03329194803196034
0.37445742252769154,0.056729448031960325
0.326171875,0.03251495071444607
0.3270024468157624,0.03329194803196034
0.328125,0.034514857085963
0.32884420640146345,0.03524507303196035
0.325013219729893,0.03133882303196035
0.2837058879452514,0.009572662041375248
0.2856506940197991,0.010280679718565134
0.3056105137723372,0.017551734428339398
0.32421875,0.030693030553312996
0.322790370558266,0.029385698031960353
0.365234375,0.03293991122947906
0.3657463218819518,0.03133882303196035
0.3671875,0.02995085049507934
0.3676890402893496,0.029385698031960353
0.37109375,0.05802640445535002
0.373046875,0.05763822433018452
0.3671875,0.05834405872539114
0.369140625,0.05854487424945416
0.330078125,0.036578344239934
0.33069776192202766,0.037198198031960394
0.33203125,0.03856098947978506
0.33265529207104366,0.03915132303196037
0.281744998148499,0.008857755258228739
0.279792117509025,0.008146217428964743
0.30610267387928025,0.01771458063177762
0.30657629240434975,0.017875535576572524
0.3067732842119588,0.01800665331437333
0.31766911242332374,0.02547944803196034
0.318359375,0.02607806127323377
0.322265625,0.0290289210301694
0.32031578377826186,0.027432573031960377
0.3203125,0.027430416209401558
0.36955867305254964,0.027432573031960374
0.369140625,0.02802174056578684
0.36328125,0.0568452645309074
0.359375,0.055703353667186095
0.333984375,0.040427013500105316
0.3347468724351378,0.04110444803196034
0.3359375,0.042294449840933425
0.3368228017592264,0.04305757303196038
0.2779167772819691,0.007462735421164724
0.3081090017635212,0.0184587124567211
0.3083187077555554,0.018574393055782082
0.31640625,0.024657265743571733
0.3147870704674014,0.023526323031960332
0.3709859881954773,0.02547944803196034
0.35546875,0.05477632303196034
0.3515625,0.05276470798897409
0.337890625,0.04398195090069128
0.33921270963993866,0.04501069803196037
0.33984375,0.045508001165651873
0.34171532025130347,0.04696382303196034
0.34375,0.04896485769926051
0.345703125,0.050316962083869377
0.34715912583822844,0.05087007303196035
0.2764137511828849,0.006914753544439758
0.2739352550941269,0.006006677662089259
0.2721384208511881,0.005350231841451001
0.3118628894218082,0.021573198031960342
0.3125,0.02202451802734521
0.3090740633300988,0.019620073031960342
0.310546875,0.020710213636274843
0.30862812633850223,0.018988810984121182
0.31445312500000006,0.023304490965818308
0.37304687500000006,0.024904279240393262
0.375,0.0246299840218288
0.37109375,0.0254054567213493
0.3793266443469128,0.023526323031960325
0.37890625,0.023901410992102134
0.376953125,0.024451984370842946
0.34765625,0.05087007303196035
0.2680236687873927,0.0038479268406401163
0.2700305576460408,0.004580653333313822
0.2641736691827319,0.002441183538743498
0.2661256535343012,0.003155196808239243
0.2758868700191194,0.006721705922726808
0.380859375,0.02198593645823772
0.38271100354281135,0.021573198031960342
0.2622326876940626,0.0017306829998878664
0.3828125,0.021559441635226443
0.39247679054977747,0.019620073031960342
0.390625,0.020285931260656274
0.4921875,0.012724160460569666
0.48828125,0.012586488472583894
0.484375,0.011917336067782345
0.49609375,0.012291933127184376
0.2602697047725243,0.0010131452050211585
0.259178427375218,6.142061665500228E-4
0.388671875,0.02088319838753982
0.38671874999999994,0.021273206152035685
0.384765625,0.021530283733997964
0.396484375,0.01892916171039233
0.3984375,0.018421596943750607
0.39453125,0.0192204258111342
0.392578125,0.019584935076053144
0.400390625,0.017888088601603444
0.4011471202135035,0.01766694803196035
0.4836340338733063,0.011807573031960356
0.25831769111942865,2.992124408045213E-4
0.25644587583438894,-3.849240111074622E-4
0.40429687499999994,0.01697492077338736
0.40625,0.016799354911373493
0.40234375,0.017344218183490932
0.408203125,0.016587126033566064
0.41015625,0.016410082494167852
0.4146453906276717,0.015713823031960342
0.4140625,0.015832474034051074
0.48046874999999994,0.011363258094695848
0.47656249999999994,0.011096409189848059
0.2524615588519924,-0.0018423349847763275
0.25441332571759456,-0.0011277241775178924
0.25066855134284827,-0.0024985984910528463
0.2485568925968728,-0.0032684450155197786
0.412109375,0.016227329831490785
0.416015625,0.015457066374606306
0.41796875,0.015329389829362623
0.423828125,0.014600066563856264
0.42578125,0.014418931232679962
0.421875,0.01491707186553222
0.453125,0.011849779334915914
0.4535170975493481,0.011807573031960356
0.46875,0.010920693803746554
0.46484375,0.010935457691119713
0.46093750000000006,0.011141714708019869
0.47265625,0.010923833035364575
0.246552981978195,-0.00400139361055586
0.2427016674123378,-0.005412484630800132
0.2407629580299647,-0.006120888875004536
0.419921875,0.015212288496932217
0.427734375,0.014203247518163514
0.4296875,0.01394453025747545
0.43125441382742513,0.01376069803196034
0.4453125,0.012400352031433658
0.44140625,0.012658578163740128
0.4385937498882413,0.012907294007459321
0.4375,0.013018190420357297
0.44921875,0.012200044512622564
0.45703125,0.011450217663947156
0.24465327007103316,-0.004697422668789312
0.23879742864720147,-0.006839769180577637
0.435546875,0.01328410558811967
0.43359375,0.013507581700620925
0.431640625,0.013707096475795986
0.23740438802048433,-0.007351999839253015
0.23684695845413845,-0.007557942566229999
0.23497894399677136,-0.00824344853132085
0.22920429058433778,-0.010362730223021017
0.23099248587827315,-0.009704049956762016
0.22708852916778724,-0.011132109445294941
0.2250895736271038,-0.01187070012991571
0.2329433540008078,-0.008986969873308227
0.22123737808278415,-0.01328734255664284
0.2231897565368472,-0.012574412074810831
0.21930145657298758,-0.013995047106578007
0.21862950785312324,-0.014247153073496024
0.21734019897964368,-0.014734023367648608
0.21539410753708474,-0.015464227271005652
0.2135259696756725,-0.016140278292629054
0.20564312261630968,-0.019058847375660624
0.20481770013549533,-0.019366723516233857
0.21148447019052896,-0.01687667934076725
0.20953646421973854,-0.017601623121227695
0.20775858847322928,-0.01827773781262551
0.2036494860574628,-0.019804068390715163
0.19979846028710677,-0.02123190819641159
0.19786104358543252,-0.02192712443071575
0.20175067167377148,-0.02051851870069144
0.1880984563564097,-0.025548688779487655
0.18631905710127766,-0.02620958034757239
0.1958937305861453,-0.022657843911143418
0.19395749854106634,-0.023415136285476163
0.19281424363584054,-0.023874349718587
0.19033037895667995,-0.024778402527746636
0.19006419283279533,-0.02487245916104133
0.185684006600006,-0.02646954376289324
0.19211322989313384,-0.024147607360188922
0.18422748441942188,-0.027067373185147382
0.18225168149450355,-0.027853596423256036
0.1803443675074805,-0.028552689547557145
0.17838869611496355,-0.02925657275566733
0.17646901492656442,-0.029992115039174476
0.17556592221848058,-0.030360313297816664
0.16497165519984497,-0.03439442172775101
0.16674398897893525,-0.033725280028023934
0.17451694345850108,-0.030773112152276273
0.17257455102329844,-0.031513478994455224
0.17072875212217298,-0.03223253996365725
0.16869655610505632,-0.03301286791839239
0.14969754914572916,-0.03942881778476749
0.14909809325700785,-0.03964104829907482
0.14330765400855147,-0.04170928281003187
0.14508146137302805,-0.04105548278541696
0.16288275040208117,-0.03527070661990882
0.16266813326817825,-0.035366856551955844
0.14117843255013401,-0.04248609162406526
0.13918475710694428,-0.04320718341810624
0.15168159839528156,-0.03884540824278183
0.15097748902150349,-0.039023547014456955
0.14704300809289514,-0.04036774190595509
0.160913060130861,-0.03606571686259162
0.13531870158817255,-0.04461775171805237
0.13727160442820807,-0.0439062619747871
0.1333897875067648,-0.0453110560580698
0.1510216626061896,-0.039144912936572476
0.1494075697944829,-0.039881174957596986
0.15900099230851483,-0.036759756304987484
0.15705021480375755,-0.03747708535872933
0.15513641995875654,-0.03822037622168119
0.1314089559832663,-0.046029906350451344
0.1294532338092931,-0.04673365003766232
0.14921558771612037,-0.039963861660838144
0.14525482507528664,-0.04153179562566951
0.14351179475020182,-0.042270154868022936
0.15317107621902532,-0.0389733320849221
0.12759243642713208,-0.04739294792670366
0.1423037572247554,-0.04277888327116548
0.1512138080791942,-0.03967282826599925
0.14718568025395723,-0.040759730432821405
0.14935101566491327,-0.04033594687878592
0.14354728743046694,-0.042367670202115404
0.14533905448953544,-0.041763214031085155
0.1118936048838406,-0.053089817745469496
0.1121062694259647,-0.053018441118623465
0.11770340350325573,-0.05102712526868651
0.11968854160507764,-0.05029060969193139
0.12553892640672526,-0.048133271234442714
0.1234908805067341,-0.04889471984193337
0.121730521215477,-0.049546385221480846
0.1472998076329489,-0.04107329281831447
0.1098977635969114,-0.05377589919144382
0.11384172524391593,-0.05245775235872675
0.107945341714906,-0.05448871035598919
0.1157980336713596,-0.051755619389630324
0.10610708094803016,-0.05520057434079046
0.10595511333339211,-0.055257278842645086
0.09623011804139056,-0.05886922123448368
0.09821366118069763,-0.058136368824933456
0.10406938031415264,-0.055993686323108686
0.10201813866315061,-0.056738563042342094
0.10025183848070288,-0.057374629180251095
0.0942970668492739,-0.05952970673654747
0.09233871502333361,-0.06022622551461656
0.09112793674611384,-0.060746413330736174
0.08463692328853745,-0.06304990387130241
0.08607563557498002,-0.06258530057157717
0.09046069789251518,-0.06104240377188168
0.0825708966081201,-0.06377459597506752
0.08053318957987451,-0.06454885924987872
0.08889370924980101,-0.06169833096414275
0.08651594693945491,-0.062459440277857714
0.08823822859523008,-0.061936906411543896
0.07950699019405344,-0.0649760919696846
0.07770557683651476,-0.06577047813960783
0.07881099395244323,-0.06530683365835623
0.08850869133108472,-0.061857414294034026
0.0689861640829534,-0.06888059636181815
0.07090564097261086,-0.06818684671111813
0.07680063172425543,-0.06615206208963101
0.07343193957494572,-0.06732595489486991
0.07287046533492297,-0.06750811107994054
0.07480635159761367,-0.06688552817387114
0.06701630626747737,-0.06965507982774553
0.0669385956320904,-0.06968933881092199
0.06512865739850322,-0.07054585337661168
0.06506516218184832,-0.07057930081494311
0.06337109554105384,-0.07146057072939403
0.062195523738204854,-0.07193589577991691
0.05751266115141872,-0.07363058679189224
0.05832280222015995,-0.0733454511380875
0.05663013782712208,-0.07396153059375554
0.061337136941048205,-0.07228282892041338
0.05928437749915819,-0.07300792848647689
0.04185239283124243,-0.07881996992119608
0.041735718187350127,-0.0788558519352737
0.03964543374842056,-0.07953287241496305
0.03759652591898485,-0.08026073846974283
0.05126381035441162,-0.07591471406114715
0.04960008020565672,-0.07649780776290944
0.04765097049684211,-0.07710159765911016
0.0447047708766106,-0.07798987720806205
0.04362207927809939,-0.07830452380865813
0.05547074190115497,-0.0743961796114172
0.05348750009684038,-0.07511372940302229
0.012232126084168408,-0.0892555590231343
0.013323049976687276,-0.08886983314160254
0.033782875265399026,-0.0816567639589629
0.03583338819261466,-0.08090771641011411
0.05156170530610038,-0.07581028223230407
0.045620092363348755,-0.0777169734410659
0.031800937522208826,-0.08236981077595437
0.009397514530103755,-0.09027120866218073
0.008434341583752659,-0.09061909139994358
0.010285081261742393,-0.0899519535874089
0.014286629200753279,-0.08854110181177781
0.00529854502873605,-0.09174484319649659
0.005115422071662752,-0.09181070887202324
0.006664297163982216,-0.09125524319595744
0.027912556912736385,-0.08375933543710934
0.026013966739928316,-0.08449335623466701
0.02986905885760266,-0.08305773415274276
0.014974941192970001,-0.08830969771181063
0.003621776486686798,-0.09235076148779231
0.0023860678893865726,-0.09279805762803883
0.0012453222151201945,-0.0932172663805727
0.02450439872165158,-0.08513412340130924
0.01607239747119308,-0.08796114508189379
0.016465025386657874,-0.08782900711979544
-0.0023859466028604693,-0.09279690717338113
-0.0012452052434575819,-0.09321484716888152
2.4448933266760773E-4,-0.09358436903210293
-0.0036216488395619255,-0.09235118140328345
0.024060355063428858,-0.08532958929850493
0.01813497636144731,-0.08728041766784715
0.01911245351733821,-0.08695790563426996
0.020228789989227287,-0.08660391754113861
0.021307162143946536,-0.08629782234941447
0.02212936787113115,-0.08610128565088308
-1.504192953873129E-4,-0.09361860772562973
-6.747942607747903E-21,-0.09367431153817732
-0.005684469015121329,-0.09160437835324989
-0.005114972463239047,-0.09181007909429545
-0.008433710795147101,-0.09061749895084298
-0.006663055504388846,-0.09125197106460367
-0.00919120140150634,-0.09034630050105617
-0.012232471672951856,-0.08925653544805248
-0.01028806485438457,-0.08996036163599849
-0.014278860342213689,-0.08851974389800099
-0.014479978886792616,-0.0884487454547363
-0.01587219207742349,-0.08798312509586764
-0.01809524877259713,-0.08723565433143347
-0.016058647139951917,-0.0879233583808094
-0.021294761743544662,-0.08616361039727544
-0.020191872083258844,-0.08650248567383824
-0.018116097474913797,-0.08722854620545716
-0.022089864599101464,-0.08599275121596245
-0.027932644045107938,-0.08381452437774556
-0.026294405907514418,-0.08448261406653591
-0.022407712813835527,-0.08589725466355012
-0.03377990146159181,-0.08164859350044527
-0.031809090295914944,-0.08239221033681576
-0.029875701626232983,-0.08307598500890367
-0.02604789943445989,-0.08458658554333538
-0.02406849177813897,-0.08535194473973759
-0.03582592672254614,-0.08088721619031897
-0.03965282836619497,-0.07955318895959626
-0.03760264758925995,-0.08027755761999071
-0.041508028829031846,-0.0789453081677535
-0.04361505063642914,-0.0782852127750712
-0.04174049897624982,-0.07886898704435241
-0.07087189731900329,-0.06809413678810122
-0.06935654992330025,-0.06867055009293573
-0.04462894899422675,-0.07801747411635579
-0.06700174973959695,-0.06961508609752051
-0.06587914182241077,-0.07007494846222528
-0.08647141531969496,-0.06233709066249661
-0.08582559996562442,-0.06258382253877615
-0.07283259213318902,-0.06740405531710005
-0.0729004358228812,-0.06738068111185258
-0.0689643250269795,-0.06882059405081617
-0.08779315822403708,-0.06186768989852927
-0.04712444526998684,-0.07742131974063855
-0.04564681288740686,-0.07779038747492267
-0.05544328004178042,-0.07432072877559118
-0.05439794488925366,-0.07477398238027888
-0.04965445699078064,-0.07664720674683025
-0.04771346449330634,-0.0772732984970988
-0.06507893191447894,-0.07040923373697569
-0.06325916988901971,-0.07115305753878404
-0.0846369321053605,-0.06304992809532381
-0.07677094647127834,-0.06607050253030616
-0.07475833835870092,-0.0667536128888471
-0.08843129782119753,-0.06164477738082084
-0.061213124900696955,-0.07194210865200835
-0.05917438596117647,-0.07270572923036223
-0.0588981015892955,-0.07282392730354843
-0.057443614601021535,-0.0734408829605777
-0.053507890173211475,-0.07516975067542678
-0.05160903880228205,-0.07594032993959027
-0.08265989018659518,-0.06382853022078128
-0.08259974476480701,-0.06385385563131955
-0.0805792109024752,-0.06467530179000991
