"Plane Section: Position[X] (m)","Plane Section: Position[Y] (m)"
3.5,0.0019845377195527904
3.2700000000000005,0.0020077866057202232
3.04,0.0020852758371836602
2.8100000000000005,0.0021968274103492153
2.58,0.0023763131337801117
2.3499999999999996,0.002655973485037563
2.1200000000000006,0.003014116368304017
1.8900000000000003,0.0035238968019410243
1.7636651834329424,0.003999999999999861
1.6600000000000006,0.004396487339805723
1.4300000000000002,0.005829491614960002
1.2000000000000006,0.007287902576152581
1.1760000000000002,0.008061361463580595
1.1520000000000006,0.00871212854922335
1.1280000000000001,0.00941509527512921
1.1040000000000003,0.0099380802820625
1.0800000000000005,0.010420770967035298
1.056000000000001,0.010786984837740885
1.0320000000000005,0.011216600051077628
1.0080000000000005,0.011766483175672311
0.9970532158742123,0.011999999999999969
0.9840000000000005,0.012278614657043035
0.9600000000000004,0.012854663837861999
0.9360000000000004,0.01350028564609983
0.9120000000000004,0.014161029122839381
0.8880000000000003,0.015295305862319433
0.8640000000000005,0.017130875486705027
0.8400000000000003,0.01894756258174447
0.8216823333471224,0.01999999999999954
0.8160000000000001,0.020345060358681083
0.7920000000000005,0.021843422582812386
0.7680000000000005,0.023258923122609295
0.7440000000000008,0.02471750941101623
0.7200000000000009,0.026660039882018025
0.7059097760878543,0.027999999999999026
0.6960000000000008,0.02896356243185657
0.6720000000000008,0.03165114240921296
0.6480000000000008,0.035024751038492064
0.6427420666832213,0.03599999999999837
0.6240000000000008,0.03925403020469194
0.6001044024451109,0.04399999999999772
0.6000000000000009,0.04402446642354498
0.5760000000000006,0.04958912581674314
0.5675807977349723,0.051999999999997014
0.5520000000000005,0.05645129847160753
0.5412710603562325,0.059999999999996015
0.5280000000000005,0.06527899582288918
0.5213438352190277,0.06799999999999556
0.5098912852356416,0.07599999999999485
0.5043920992682428,0.08399999999999419
0.5040000000000001,0.08435238792029119
0.49581980836510564,0.09199999999999316
0.48926514757723377,0.0999999999999926
0.4877789030837111,0.12166666666665965
0.44082381272938137,0.09999999999999215
0.4319999999999995,0.0923933069350016
0.48954550565453697,0.143333333333326
0.45200672927656715,0.1216666666666589
0.46493178900134835,0.14333333333332593
0.4559999999999987,0.13185666268163573
0.49311090756394566,0.164999999999993
0.4696063278250322,0.16499999999999282
0.47999999999999704,0.17566109835637533
-0.5997897240621128,0.043999999999996514
-0.5999999999999996,0.04394560623667478
-0.5673708545199827,0.05199999999999555
-0.5759999999999998,0.049538368104135325
-0.5410191697795025,0.059999999999994676
-0.5519999999999998,0.056370916042668175
-0.5215500940727611,0.06799999999999393
-0.5279999999999998,0.06529818886180781
-0.642464295922528,0.03599999999999701
-0.648,0.034983757035550254
-0.6239999999999999,0.03918637656964495
-0.5104667512273531,0.0759999999999932
-0.5036712599777092,0.0839999999999925
-0.5040000000000002,0.08363969127315946
-0.4402075993022424,0.09999999999999049
-0.4320000000000003,0.09390577653661561
-0.6719999999999999,0.031632500219055795
-0.4945662469945919,0.0919999999999917
-0.4552227684881996,0.12166666666665746
-0.7049206217625247,0.027999999999997898
-0.7200000000000001,0.026522921072932477
-0.696,0.028899699168835648
-0.48830098299024793,0.099999999999991
-0.4560000000000027,0.12315801834887244
-0.744,0.024497809409718588
-0.487056771482168,0.12166666666665761
-0.473138168290821,0.14333333333332468
-0.768,0.02285417406566443
-0.4858491556250838,0.1433333333333248
-0.47667934692257385,0.16499999999999138
-0.7919999999999998,0.021586168401624285
-0.4844670962820184,0.16499999999999143
-0.4800000000000084,0.170423387619293
-0.8184098677801265,0.01999999999999877
-0.8400000000000001,0.018851133563835172
-0.8159999999999998,0.020138090123028175
-0.864,0.017512105876477814
-0.8880000000000002,0.015739085735115538
-0.9120000000000001,0.014361190329480397
-0.9360000000000002,0.01349155245359631
-0.9600000000000002,0.01281143834515327
-0.9905839790516056,0.011999999999999596
-1.008,0.011546068395102619
-0.9840000000000002,0.01217517892693281
-1.032,0.01097481668246885
-1.0560000000000003,0.01052535594503091
-1.0800000000000005,0.010156839492661275
-1.104,0.009717875818853618
-1.1280000000000001,0.009366359770367209
-1.1520000000000001,0.008927386209092338
-1.1760000000000002,0.00835529813883509
-1.2000000000000002,0.007458797522421283
-1.4300000000000002,0.005871029480051606
-1.7665125531528088,0.004000000000000097
-1.89,0.003542054787712322
-1.6600000000000001,0.004400409386527443
-2.12,0.003016379414590975
-2.35,0.0026431038163225867
-2.58,0.0023882130355903242
-2.8100000000000005,0.0022105416224448486
-3.04,0.0020806060364922073
-3.2699999999999996,0.002007663340137763
-3.5000000000000004,0.001994798731638756
-0.3016887231856934,-0.07787711158453124
-0.3000218713781385,-0.07848386957199863
-0.3516033237404634,-0.033795378009596824
-0.35014618951863397,-0.03530810068459074
-0.34647683118505723,-0.039214994188912014
-0.3476977638475274,-0.03773118184961954
-0.3555088343788792,-0.029578691262295002
-0.353818381754379,-0.03140120668332947
-0.35744998222789537,-0.027494319800072855
-0.2944416522386867,-0.08051659203335418
-0.29622365393536576,-0.07986766410590633
-0.29233506987587393,-0.08128374275591986
-0.29032896950026654,-0.08201431539852036
-0.2884295071030057,-0.08270604003205126
-0.286476506616641,-0.08341724822666383
-0.284535384902352,-0.0841241276909054
-0.2825704971110321,-0.08483966651908714
-0.2806174950709673,-0.08555088362166462
-0.3033897754911902,-0.07725620467391578
-0.29812288958158917,-0.07917592444108368
-0.3457450388087687,-0.040012205019005403
-0.34467533189234206,-0.04116843512278064
-0.3427848272927356,-0.043121891664268205
-0.3437922685371603,-0.04203527961213181
-0.35941434447973475,-0.025358938934316656
-0.27874601019520423,-0.08623241060066023
-0.3034503801354509,-0.0772342106723951
-0.34183952554862074,-0.04421394085900612
-0.3411828741826259,-0.045075297606500406
-0.339361823937121,-0.047028741968748095
-0.3398867966631177,-0.04647302724358961
-0.3610534362214606,-0.02358743785247272
-0.26108751795021035,-0.09266317349324084
-0.25913451715465835,-0.09337439401324893
-0.2572659599703463,-0.09405487515937766
-0.2767114875443784,-0.08697330836295505
-0.27475848573996825,-0.087684526112624
-0.27296578099107294,-0.08833744015743222
-0.270852498910948,-0.08910700768899096
-0.2688485649999258,-0.08983679889846834
-0.2649935181537351,-0.091240728642976
-0.2630550868882428,-0.09194665432416031
-0.3035636313642927,-0.0771957033287616
-0.33793405869368764,-0.04868031087897285
-0.33766018454109836,-0.04898216539157526
-0.36331982753614545,-0.020984960800476245
-0.364482336328648,-0.019680586513958282
-0.25522852582842676,-0.09479686324037546
-0.25327552742113996,-0.09550809031850795
-0.25148631213119876,-0.0961597433968264
-0.2669465108790085,-0.09052948596215846
-0.303608650232697,-0.07718349065171688
-0.3360537467382403,-0.05093557212022896
-0.3343588104126073,-0.05288899436762798
-0.33598134302199917,-0.05101475147800662
-0.3672252141478136,-0.0160609888871141
-0.3674604786794646,-0.015773814218554786
-0.23578600693474616,-0.10187756334163049
-0.2376516276315877,-0.10119814713073545
-0.24936954022034322,-0.09693057087389732
-0.24736817807143366,-0.09765945158981312
-0.23960461867864433,-0.10048689984157796
-0.3037679575216348,-0.07713061531514732
-0.33257681822018215,-0.05484243188081108
-0.3340286082502954,-0.053240270770103834
-0.3701910163910084,-0.011867085342134587
-0.23179267796116731,-0.10333195344837434
-0.23374565138485645,-0.10262065776581747
-0.23000699705072752,-0.10398235329916022
-0.2278866969778571,-0.10475445107693263
-0.2258878991212316,-0.10548238911867343
-0.24546357310353742,-0.09835310657961345
-0.24351059079076443,-0.09906437785293526
-0.24157486107229795,-0.09976935855763316
-0.3039477203595745,-0.07707194067070086
-0.33207585562705205,-0.055363988375959294
-0.33071556606897,-0.05679588329270805
-0.3711305273635964,-0.01071846354049968
-0.3733076196142702,-0.007960288766776092
-0.22398075349203445,-0.106177051672807
-0.2220277818640108,-0.10688835228621804
-0.22009472816200154,-0.10759229670333093
-0.2175125711389364,-0.10853272584142501
-0.21812179363754905,-0.10831083002523881
-0.30404980742728643,-0.07704564242307653
-0.3301230879456482,-0.0574018341122324
-0.32881278595357616,-0.058749341986784
-0.32688312948757525,-0.060702805393789944
-0.32817031338043456,-0.059400423640397285
-0.3750359596099632,-0.0060547318432274
-0.2143063217787089,-0.10970094237777057
-0.21616891229381477,-0.10902237855742594
-0.30420195507736014,-0.07700509682990897
-0.32621753336477477,-0.061367930969508835
-0.32491079594707617,-0.06265627628448316
-0.3228173204118772,-0.0646097684181566
-0.3242647456129706,-0.06329132151237118
-0.37689531639265783,-0.004053409582300675
-0.21031022276824907,-0.11115689922738854
-0.20852836687002013,-0.1118067227648658
-0.2064046538359659,-0.11258052833939389
-0.20440859993125743,-0.1133080051236966
-0.2122630717609263,-0.11044526185988408
-0.30433332520510015,-0.07697884454609238
-0.3223119331342811,-0.06507370253283426
-0.32035902768596647,-0.06632590727204074
-0.32002955176974646,-0.06656338230034647
-0.3789413042463206,-8.913880417051486E-4
-0.3795689828557631,-1.4669067859709458E-4
-0.20077402525984053,-0.11463386342065938
-0.20249925019285359,-0.11400461133200299
-0.30493643483186317,-0.07677094107709247
-0.3055431475120851,-0.07656150024921271
-0.3055591574043929,-0.0765569603751578
-0.3184061467146375,-0.06771769650792551
-0.3175527015769955,-0.06851694166110092
-0.31541818497582885,-0.07047044099157727
-0.31645333930519226,-0.06952898580417186
-0.38284662381470713,0.00441491042943001
-0.18883075754536555,-0.11899005540127951
-0.1907835571150181,-0.11827828231918183
-0.1870526164758862,-0.1196388730012705
-0.186763124318164,-0.11974441815419846
-0.20054665010680314,-0.1147169321918688
-0.19861678422588855,-0.11542122395142893
-0.19468908719345632,-0.11685454651531671
-0.19282959425875895,-0.11753239673229565
-0.3056623397102351,-0.07647624815910978
-0.3145005245274585,-0.0712982561212423
-0.3127079655093319,-0.07242404127504594
-0.3861914569686497,0.007666970732563046
-0.18492572886681713,-0.12041516803870318
-0.18293237336674806,-0.12114204630511236
-0.1966417503061927,-0.11614239872540935
-0.30577349547075044,-0.07640057640058245
-0.3066888255979187,-0.0758671914713455
-0.3062095055680436,-0.0763314308795204
-0.3125476153308296,-0.07252908544184584
-0.39065734466051427,0.014561546679830116
-0.17714039449295355,-0.12325439664344078
-0.17906743877464681,-0.12255078554437826
-0.1732093047117781,-0.12468683150323673
-0.17516232589389769,-0.12397566696433863
-0.17135252171198567,-0.1253628557395483
-0.1810202173264272,-0.12183895474766711
-0.31059468711233496,-0.07365143909557013
-0.3096730065497162,-0.07437769850355684
-0.30864183092892894,-0.07518458598388539
-0.39124784324842504,0.015480357520709245
-0.3954185516727136,0.023293588999860677
-0.3984676591372027,0.02702557690580707
-0.40176734377888945,0.031107202419212422
-0.4062783130930881,0.037553665123921616
-0.4114604535933341,0.04673390240509609
-0.4073151644463451,0.038920675383360616
-0.1693032122182926,-0.1261090229271899
-0.16724865822316076,-0.12685735367056428
-0.16145333214205498,-0.12896834602856772
-0.16344444724286278,-0.12824333641342772
-0.414087902874495,0.054150402436622905
-0.41423610343007694,0.054546889252256835
-0.4651506860077989,0.15611831899489712
-0.468756488291123,0.1620190586436007
-0.457782555464234,0.14049202670824745
-0.151726602812627,-0.13251109983210346
-0.14987335253213624,-0.13318750782602612
-0.159538368200714,-0.12966556477446678
-0.1575852980189738,-0.13037659476145386
-0.15566033438278729,-0.13107746757911268
-0.16548515965706428,-0.1274999554826553
-0.4179712099028804,0.062360044345963206
-0.43164705993036356,0.09361244296973781
-0.43751714904142897,0.10122144575734648
-0.4437193390542039,0.10923956015741886
-0.4531380971639327,0.12432938606144124
-0.4535306228186991,0.12486628086583128
-0.1476418370557418,-0.13400350361802726
-0.1478220536055916,-0.1339375290882465
-0.1536793788393901,-0.1317992621017492
-0.4218970617061976,0.07320470894846831
-0.4246778134228585,0.07798622062982802
-0.14577240525046087,-0.13469154747798426
-0.14196781717664075,-0.13608427786794697
-0.1440096999438819,-0.135337045145352
-0.1399805014493236,-0.13681168700234375
-0.13985283714443222,-0.13685851252009543
-0.13806621711526354,-0.13751880541608896
-0.13611600801070117,-0.13823769186087648
-0.13451615398630104,-0.13882971303784478
-0.13026945563871953,-0.14040554089957438
-0.1284204127141721,-0.1410841337979018
-0.12636566680127037,-0.14183405811462732
-0.13419895807892654,-0.1389518202420252
-0.132220811308579,-0.1396898028989872
-0.09900137663387941,-0.15172996764716545
-0.09701936815222151,-0.15245584402427118
-0.1069256642870669,-0.14886590094912888
-0.10877511824254356,-0.1481978583980715
-0.10281494051548155,-0.15034629485939338
-0.1028903916021514,-0.15031908318524836
-0.10104877994373479,-0.15098376580948758
-0.11463563989034783,-0.14606836869727474
-0.11487931829542432,-0.1459808365790293
-0.11271492463232387,-0.146763932596361
-0.11072845150354782,-0.1474875508212209
-0.12431427053918676,-0.14257548586646723
-0.12050113450507963,-0.14395253465918945
-0.118501537006378,-0.14467616278222303
-0.09509699915939354,-0.15315686847726773
-0.09348416244757216,-0.15374453868123333
-0.10486372362332945,-0.1496054902961858
-0.11659197604164015,-0.1453663069940609
-0.12254815891835535,-0.14321235612943012
-0.0877611693044995,-0.15582867441652395
-0.08923801908418094,-0.1552905913040142
-0.08710693484625913,-0.15606692621581678
-0.08544004124019068,-0.1566726709857346
-0.08337896539182824,-0.1574241119796304
-0.08266017185498606,-0.15768629870584067
-0.09314417859941489,-0.15386858392036404
-0.09017693875926991,-0.15494892647291406
-0.09122753104259854,-0.1545667931146078
-0.08728515440708881,-0.15600218560243417
-0.0813348878418673,-0.15817003096455642
-0.07554302084736575,-0.16028948847073723
-0.07752163236888228,-0.15956235757728993
-0.07957099649300352,-0.15881447726546963
-0.07427080618492087,-0.16076919105207085
0.29613492635636873,-0.07999415628927525
0.2943522714092033,-0.08064349698413935
-0.07362688265278881,-0.16101569602963708
-0.07168068405846426,-0.16174559525127766
-0.06976902646019045,-0.1624489565773368
-0.06969343861927998,-0.16247774591593603
-0.004332528420499703,-0.1861662532585311
-0.0034102138422344025,-0.18650149017088172
-0.007213278256713114,-0.18511988472131433
-0.005335447492849782,-0.1858019863691556
-0.0016563511203831318,-0.1871404257860349
-0.0013904773977507006,-0.18723765654678873
-0.009136987491398652,-0.1844220998614835
0.02085712744140176,-0.1801189365805721
0.022009322494485988,-0.17970199615199883
0.016747863739353448,-0.18161031249830806
0.01878548552474741,-0.18087014352147096
0.29803811909384814,-0.07930146439936435
0.2940962385635364,-0.08073681719642434
-0.0677913247100618,-0.1632137355400488
-0.06748761107367982,-0.16334346994702398
-0.02276006195122775,-0.17948155394508633
-0.02099305788534721,-0.1801197748710878
-0.03456239074092254,-0.175227815425302
-0.032583943885960275,-0.17593920939501495
0.012925385544133383,-0.18300021951245682
0.014982256697661064,-0.18225226601299185
0.009022219471107998,-0.18441663988552082
0.010893763005042313,-0.18373730145041692
0.010952507614780381,-0.18371602655075894
0.007080900915234477,-0.18512124443551656
0.005202503039918939,-0.1858038937778316
-6.781054762093904E-5,-0.1877233888910426
-0.01240367214188968,-0.1832406964097179
-0.011087989359143399,-0.18371693275056522
-0.009156128889426315,-0.1844151744058008
0.024649260112741857,-0.1787495996930032
0.026309072775589713,-0.17815019920605324
0.022694195102106903,-0.17945514610545507
0.2999390693187727,-0.07860788112881514
0.29224685716472965,-0.08141423030689468
0.29024237674880027,-0.08214912884481218
0.28639148545004434,-0.0835562885939627
0.28834388379433606,-0.08284344013915794
0.28485512443606537,-0.08411696816156482
-0.06670816978987251,-0.16372096375125783
-0.06505527727320659,-0.16446336406249767
-0.06591530358739797,-0.16413634062433063
-0.018920928938345828,-0.18086964674271044
-0.02283031239763282,-0.17945649281781398
-0.016883656506615163,-0.18161077510028176
-0.029850382241464614,-0.17691797817063276
-0.028693559117119256,-0.17733448610660246
-0.026783497764864425,-0.17802505035137237
-0.024784737386090543,-0.1787491831016103
-0.03511203205614937,-0.17502959613586416
-0.030650148240803452,-0.17663311906026505
-0.043562703150515414,-0.1720561757496861
-0.042517644217996406,-0.17242017560500505
-0.03839221172544879,-0.17386533858665565
-0.03907012973011449,-0.17362980058265504
0.0032767999035169405,-0.18650395721991492
0.0015222449947515323,-0.1871456162341426
-0.01511887180748093,-0.18225502304233615
-0.013061952587563475,-0.18300306719520198
0.0266490127076964,-0.1780281977581666
0.028560080954040123,-0.17734040591653757
0.08532315809781561,-0.15672420262346917
0.08716778347409475,-0.15605237735696595
0.2084548231576945,-0.11197733039741076
0.20886176193030764,-0.1118305580841031
0.20632977142268663,-0.11274745672078046
0.2043344639594514,-0.11347698639317802
0.3016180029868091,-0.07799582175479115
0.2844510333263279,-0.08426500735980597
0.2824891401255979,-0.084988778363577
0.28164355304231803,-0.0853129901175369
-0.05992270760190899,-0.166180135103466
-0.06034193650279428,-0.16603934749925672
-0.06366363106454981,-0.16497015823852432
-0.0619872961634598,-0.16549835410972566
-0.06408807401250219,-0.16484639982059868
-0.03662069651245114,-0.1744903658432777
-0.040442008338622715,-0.1731507628016859
-0.04436737381567012,-0.17178149458563396
0.030515590641564366,-0.17663608191067767
0.10270113011509281,-0.15040627105211007
0.10295063033383685,-0.15031641136427035
0.09111011205863942,-0.15461685231087746
0.09302835273110449,-0.15392302197036933
0.089120554422454,-0.15534052461986422
0.0832614511817659,-0.15747391005175362
0.08121679499736563,-0.15821824024982334
0.07664344353746433,-0.15988622039319655
0.0774026523803438,-0.1596081323802172
0.192895226668755,-0.11770115355054117
0.19462805172541636,-0.11705954937649275
0.1789291982763736,-0.12278159889203996
0.17707357798734236,-0.12344351975798874
0.21024291412602622,-0.11134464568991334
0.20423901838018466,-0.1135121811822619
0.20192016447997382,-0.11441813693535832
0.2024398136635271,-0.11421400263224103
0.2122093761385529,-0.11067042937463786
0.21234750265016117,-0.1106249668126362
0.3503299501971995,-0.035430933430452866
0.35152162423376554,-0.03415370503465001
0.3465064252177021,-0.03933651301217294
0.34761468171003007,-0.038102605546533386
0.30329331290846756,-0.07737253012568027
0.28641328266148836,-0.08361620853185285
0.28641062576673704,-0.08360890480073278
0.2864923254346381,-0.0835747432072607
0.2864089478211274,-0.08360429217407132
0.2844661933425622,-0.0843066818906954
0.2853402678329574,-0.08400984498682604
0.282505380872556,-0.08503342380502696
0.2819567764974403,-0.08522771586651895
0.28082795603723837,-0.08561878280073017
0.28137431803799096,-0.08541832650346695
0.29617805507571227,-0.08010943106982837
0.29439951575383705,-0.08077258274972644
-0.058154275497120766,-0.16681286587257782
-0.05610878118346384,-0.1675784344983851
-0.05592633796966457,-0.16764737086492068
-0.04634247745560045,-0.17113096801188188
0.03826129617593367,-0.1738783616469309
0.039229591013462684,-0.17353793460450267
0.03442801506293093,-0.17523129633909862
0.035973368655388416,-0.17468084107332096
0.03149590878423983,-0.17628187078900862
0.03244907653300985,-0.17594133031672154
0.10125646848120334,-0.15093269943487675
0.10474970492362176,-0.14966489859447302
0.0949824544464664,-0.15321482748127283
0.09566301769759591,-0.15296743831540519
0.07945234275444187,-0.15886114702031376
0.07542415819772791,-0.16033559255994195
