"Plane Section: Position[X] (m)","Plane Section: Position[Y] (m)"
3.5,0.001447417941362061
3.2700000000000005,0.001467086281146581
3.04,0.0015252987854193635
2.8100000000000005,0.0016069390036666969
2.58,0.0017422041971867559
2.35,0.0019604313968670864
2.1200000000000006,0.002244155941704592
1.8900000000000001,0.0026152616716162104
1.6600000000000006,0.0031854404379831067
1.4779792294610576,0.00399999999999999
1.4300000000000002,0.004223801957511035
1.2000000000000004,0.0053686882684192295
1.1760000000000002,0.005891779384154132
1.1520000000000004,0.006249783061586278
1.1280000000000001,0.0067483188864637805
1.104,0.007162219113264907
1.0800000000000005,0.0075661689804681406
1.0560000000000005,0.007856366508014249
1.032,0.008164497740559737
1.0080000000000005,0.008547553575876035
0.9840000000000003,0.008939177829893116
0.9600000000000003,0.009422876255191608
0.9360000000000004,0.00995641177285289
0.9120000000000003,0.010504314284771343
0.8880000000000003,0.011128572769777748
0.8640000000000008,0.011864136811592433
0.8602690842000822,0.01199999999999984
0.8400000000000003,0.012722563953437429
0.8160000000000003,0.013634042827679391
0.7920000000000005,0.014650083890426695
0.7680000000000003,0.015756128510536205
0.7440000000000004,0.01701934037416308
0.7200000000000003,0.01838951133032804
0.6960000000000003,0.019911670368779992
0.6950018968750268,0.019999999999999334
0.6720000000000004,0.021922724884890422
0.6480000000000005,0.024285335499493854
0.6240000000000008,0.026973866201501794
0.617002198522751,0.027999999999998616
0.6000000000000008,0.030410275653120645
0.5760000000000007,0.034392227968215054
0.5682009094822522,0.03599999999999825
0.5520000000000009,0.039162862119851774
0.5288956496555156,0.043999999999997375
0.5280000000000007,0.044220910441691776
0.5040000000000007,0.0513066115756948
0.5020772122728936,0.05199999999999633
0.4866582085900498,0.05999999999999581
0.4800000000000005,0.06527195308081676
0.47644779268407567,0.0679999999999952
0.4677699846509607,0.07599999999999418
0.4623693713310189,0.08399999999999361
0.46103036647022133,0.09199999999999287
0.45988235666324495,0.09999999999999232
0.45745076359678627,0.12166666666665898
0.45599999999999896,0.12620925580606046
-0.5027297581651708,0.05199999999999509
-0.504,0.051533472276208574
-0.5682594125498065,0.035999999999996674
-0.5759999999999998,0.034411703563270155
-0.5290231025765537,0.04399999999999582
-0.5519999999999998,0.0391586417975146
-0.5279999999999998,0.04425432077677392
-0.48709145596175984,0.05999999999999431
-0.474978365220332,0.06799999999999357
-0.48,0.06474187643722301
-0.6168007650676812,0.027999999999997464
-0.6240000000000001,0.026929309684544767
-0.6,0.030418716638908473
-0.4642969294819316,0.0759999999999928
-0.648,0.02424476827858289
-0.459691846232374,0.08399999999999215
-0.6955238448845682,0.019999999999998214
-0.696,0.019957728301007324
-0.6719999999999999,0.021960797635854557
-0.4604662586129043,0.09199999999999131
-0.7200000000000001,0.018337596573974855
-0.4599686338567656,0.09999999999999083
-0.7440000000000001,0.016941425851797764
-0.45689260807507504,0.12166666666665747
-0.768,0.015705795777943773
-0.45600000000000285,0.12414615194492967
-0.792,0.014615506511118304
-0.8160000000000001,0.013610273206614875
-0.8592776968000622,0.011999999999999181
-0.8640000000000003,0.011826096791375761
-0.8400000000000003,0.012697419366889466
-0.8880000000000003,0.01108480461904389
-0.9120000000000003,0.010440708899219737
-0.9360000000000003,0.009878555958264215
-0.9600000000000001,0.009365668297749652
-0.9840000000000002,0.008872836019013643
-1.008,0.008456075530900855
-1.032,0.008081683275778628
-1.056,0.007763452177657251
-1.08,0.007476653053350625
-1.104,0.007146903627028174
-1.1280000000000001,0.006829887505696364
-1.1520000000000001,0.0064071170720932675
-1.1760000000000002,0.006100318842341643
-1.2000000000000002,0.005499823519342273
-1.4804544548265588,0.004000000000000184
-1.66,0.003189338858549228
-1.43,0.004237389726314041
-1.8900000000000001,0.002629623679063803
-2.12,0.0022402687647610792
-2.35,0.001949497480847834
-2.58,0.0017518194493060812
-2.81,0.0016175464914143746
-3.0400000000000005,0.0015196060782583071
-3.2700000000000005,0.0014648973727268613
-3.5,0.001455254581208834
-0.30167342230685285,-0.05497665666445893
-0.30000656248368635,-0.055583400215761136
-0.3593998531973509,-0.005199504107876246
-0.3569277519568739,-0.00850056546374953
-0.2944263270261843,-0.057616081575450034
-0.2962083328249216,-0.05696716475603074
-0.2923197323644118,-0.058383198576440906
-0.29031361780053166,-0.05911373225470929
-0.2884141516146443,-0.05980544648180157
-0.28646115133468536,-0.060516655242831965
-0.28452003175241913,-0.061223540561500006
-0.28255514326571074,-0.06193907748003584
-0.2806021364670292,-0.06265028151531858
-0.3031617156030467,-0.05443369614695237
-0.2981075745549695,-0.056275440927126955
-0.35549441573199797,-0.010020199313438626
-0.3532606447851496,-0.012407433657285988
-0.34967418360010977,-0.016314288256904362
-0.3515888507419235,-0.014084353412140177
-0.35986581280805574,-0.004593820160334593
-0.27873064624041644,-0.06333179380063977
-0.3033752932392996,-0.05435627811007416
-0.3496361070438103,-0.01634659338099112
-0.34809671419431265,-0.018267679187389724
-0.3460838308970625,-0.020221143512489916
-0.3476833709313282,-0.01865383519475574
-0.362401319082908,-6.871427126673048E-4
-0.2610720981615632,-0.06976240337433394
-0.2591190936350036,-0.07047361364896854
-0.2572505309353011,-0.071154079649967
-0.27669611624788887,-0.0640726714022733
-0.2747431051734778,-0.06478386369623212
-0.27295039105464275,-0.06543675201221438
-0.27083709828173375,-0.06620629018069761
-0.2688331579789221,-0.06693606383862097
-0.26497809405255995,-0.0683399466814014
-0.2630396659858152,-0.06904588114678172
-0.30350669859354945,-0.05431054430244207
-0.3457305730341895,-0.020594539204984205
-0.34428411838831796,-0.02217457190490868
-0.3424099100424033,-0.024128012854559195
-0.3437778029130735,-0.02270002461513941
-0.363305162338012,3.824779174938295E-4
-0.3656251578177152,0.0032196507622802443
-0.25521309049484164,-0.07189605043542514
-0.2532600890431116,-0.07260726915365354
-0.25147086895862053,-0.07325890906751861
-0.2669310954793418,-0.06762872789467073
-0.30356292322213546,-0.054294284098443654
-0.3418250191221971,-0.02472441408559716
-0.34051000326857306,-0.026081458136010677
-0.33857867812234343,-0.028034908713431977
-0.3398722321087337,-0.026729685531690393
-0.36721064217956767,0.004951776050845761
-0.3692000605714905,0.007126503413581107
-0.23577050710552822,-0.07897657343704922
-0.23763612868776296,-0.07829715965705505
-0.24935408470097392,-0.0740297026393551
-0.24735271180495605,-0.07475855384433376
-0.2395891152392856,-0.07758590002231541
-0.3036556685120576,-0.054266345322212216
-0.33791943855988,-0.028696185736336054
-0.3366351817007501,-0.029988361342479456
-0.3346589943807564,-0.03194181948199543
-0.3359666439716872,-0.030656520095652798
-0.3711161065149504,0.00961306465272712
-0.37220679278857816,0.011033260292430128
-0.23177714799227367,-0.08043088078210811
-0.23373013247794439,-0.07971961547445851
-0.22999147642766582,-0.08108130629908293
-0.22787117597188175,-0.0818534030245971
-0.22587236279027856,-0.0825812989842363
-0.24544809342963836,-0.0754521720180622
-0.24349509658459734,-0.07616340338642191
-0.24155935976774148,-0.07686836459972032
-0.3037594441425405,-0.054236831652820054
-0.3325706614396319,-0.03389529652510143
-0.33401384264099837,-0.032576854559173564
-0.37441357111278745,0.014939882328773253
-0.21517439751236517,-0.08647750613782007
-0.21615326434990492,-0.08612098194227187
-0.2239651899569454,-0.08327588683755019
-0.22201221714876918,-0.08398718421202284
-0.22007917713688743,-0.08469116622261974
-0.21810623642612897,-0.0854096825578183
-0.30391550337744433,-0.05419094086255358
-0.33206101922202047,-0.03436615013761331
-0.33012817493077656,-0.035848833265342175
-0.32760627760627614,-0.03780238339129677
-0.3281552675731532,-0.037322950016409624
-0.37502132097529495,0.015756738193895236
-0.21429068211324986,-0.08679956850065305
-0.3041371067101169,-0.054124159796265094
-0.33010814694274465,-0.03586558175974986
-0.32620242494266827,-0.0389982731981266
-0.32540931421367075,-0.039755878745460646
-0.32333062549507097,-0.041709354162905964
-0.32424961183101975,-0.04084871700211745
-0.3772514998717842,0.01884661075363345
-0.210294499481893,-0.08825529573757844
-0.20851262954933325,-0.08890508075368656
-0.2063890124085868,-0.0896791496626909
-0.20439286129101575,-0.09040635950776739
-0.21224745267897693,-0.0875439445103119
-0.3040912857278787,-0.05417094736091061
-0.3212106245971596,-0.04366283654404954
-0.3222967938079741,-0.04267002397960365
-0.3789266173796646,0.021414278394673077
-0.38003777110623704,0.022753330470951988
-0.2005307375829235,-0.09181480913242157
-0.2024833648315378,-0.09110256283859997
-0.19860062721041427,-0.09251842953703764
-0.3041835665374898,-0.054181175844710425
-0.3203439692064725,-0.044452304188072576
-0.3186535089160561,-0.045616392606515
-0.3157643610182791,-0.04757000463727328
-0.31643814999353853,-0.047008279868819954
-0.38283206994023966,0.026145421103003164
-0.38332281208664853,0.026660134262323745
-0.18490928023001502,-0.09751157297323201
-0.18291582252956134,-0.09823817061165946
-0.1907676131929878,-0.09537607315068618
-0.1888147035026949,-0.09608754384921676
-0.18703643396697534,-0.09673600870005972
-0.1984362517989144,-0.09257836919049327
-0.19467311621819355,-0.09395226303006231
-0.19281369478250723,-0.094630309598807
-0.3047001439111346,-0.054030515894248295
-0.30568932332405196,-0.05357872745424205
-0.3056368582218374,-0.05364181706827165
-0.3183910721927297,-0.04580499842439094
-0.3144852926279774,-0.04859618717568186
-0.31324804401072337,-0.04952355382259255
-0.3857179760249039,0.030566788053477977
-0.18154232960068203,-0.0987387004070608
-0.19662558853961276,-0.0932395913004321
-0.305788064027599,-0.053518658434430294
-0.3066735358961098,-0.05300628760529209
-0.30625925636771617,-0.05343098192807105
-0.31253241593312564,-0.05006942334880275
-0.3890907033131959,0.03837985668098909
-0.39601932934214756,0.05400602481190661
-0.3984515543263925,0.05886814543986238
-0.4032993530839912,0.06963225217543656
-0.3998697143530137,0.061819173954763315
-0.17712349355332904,-0.10034955961383614
-0.17905092098122577,-0.09964700061393576
-0.17319343062375042,-0.10178481426234552
-0.17514585590020199,-0.10107201334549673
-0.17133682676586212,-0.10246133042613703
-0.18100367993341882,-0.09893511598302411
-0.3105794741018645,-0.05115623743519407
-0.3100790385454556,-0.05147721302693909
-0.30862655350532975,-0.052369026638873564
-0.3906419645192468,0.04160275296757447
-0.3926679505213436,0.04619295978296008
-0.40626161495909985,0.07334036285459505
-0.16928754117774136,-0.10320756325713541
-0.16723287998133174,-0.10395559962433462
-0.1614375426379831,-0.10606656106583143
-0.16342861456932883,-0.10534143290733175
-0.40959080929944414,0.07744581279222895
-0.42681635124442563,0.13213621715557652
-0.4374993186572763,0.14629087030902052
-0.1517106490201126,-0.10960886373878759
-0.14985697522884311,-0.11028410878477574
-0.15952262794670774,-0.10676391505154773
-0.15756965335597894,-0.10747520753107567
-0.15564475300470676,-0.10817625412899984
-0.1654692968376527,-0.10459796919066702
-0.4140722387911531,0.08447139728138287
-0.4147803991896418,0.08525918767528542
-0.4188001328525387,0.1008848654750153
-0.42187961580301336,0.11486420912180403
-0.4223072038189262,0.11651045685885997
-0.45312507364629195,0.14181321078430045
-0.14575346564711694,-0.11178111246405938
-0.1478050364904919,-0.11103237315624792
-0.14376696116516216,-0.11250735350375082
-0.14399036606047397,-0.11242552749059939
-0.1536636788407444,-0.1088977229226347
-0.4561231729586292,0.13214115719708447
-0.14194995116755488,-0.1131767911185027
-0.13996255655428547,-0.11390398369814969
-0.45796602135369757,0.11651646761091194
-0.1380457584901424,-0.11460419950266243
-0.1360935958812194,-0.11531772171426868
-0.13512843243198644,-0.1156716678140903
-0.12848530595594718,-0.11811858308896593
-0.1302406957071804,-0.11746814017626131
-0.46094797268381765,0.08012152542845831
-0.4564108497768873,0.0852662050228431
-0.4587788285136679,0.10089160439805267
-0.4645550187565191,0.07745507771623189
-0.1341739264690854,-0.11602465720399295
-0.13219238341436618,-0.11675331386690564
-0.1283941003179991,-0.11815345419496068
-0.46876130558876344,0.07518097090425112
-0.1263461456757642,-0.11892202762318296
-0.10691166385657508,-0.12596902960394926
-0.10876111040607866,-0.12530096681774075
-0.47429973548508386,0.06964422020251623
-0.10883343685702601,-0.1252750301251575
-0.1242976018980361,-0.11967128829780885
-0.12049050431966563,-0.12106491869776538
-0.11849226986721077,-0.12179228971125977
-0.09898752515004905,-0.12883350491057885
-0.09700461072674518,-0.12955689361485173
-0.10485265880903567,-0.12671668005098052
-0.10280409474804528,-0.12745808602627248
-0.10103616284581227,-0.12809069273091844
-0.47657522607234803,0.06675460302835247
-0.11462936734876972,-0.12319271861076081
-0.11658358414477721,-0.12248483727290024
-0.11270715054999494,-0.12388415915075252
-0.11071860873117174,-0.12460209668018707
-0.12253453801937186,-0.1203165276562917
-0.0950836402520056,-0.1302617584682749
-0.09313205559106977,-0.13097686774644912
-0.4801725849767653,0.06183271003580444
-0.091215130980031,-0.13167431614389835
-0.08727220051975505,-0.13310818780314498
-0.08922675598007088,-0.13240123645001506
-0.08542573857002254,-0.13377496935200292
-0.08336547240006281,-0.13452863376897312
-0.0813209666601594,-0.13527337695715239
-0.0775076063315826,-0.13666541570106047
-0.07552641143853012,-0.13738545268360025
-0.4843894078138538,0.05677832117558395
-0.07955690770306842,-0.13591736303882582
-0.07360089791890495,-0.13808591578307383
-0.07164997514454782,-0.138802842626284
-0.0703961197779611,-0.13927240729599122
-0.06396456504765646,-0.14164882108649438
-0.06580718443141997,-0.14098102204205631
0.29615001599132396,-0.0570890006707037
0.2943673810028083,-0.057738380535926975
-0.4922023524984001,0.054140886202693146
-0.06974369111599613,-0.13952096010802098
-0.06775969455070165,-0.1402684541067502
-0.06190242788023994,-0.14240688200796728
-0.007197825631259248,-0.16221906453598386
-0.005319784240713043,-0.16290062728747556
-0.007670588273078564,-0.16204781051801595
0.01676442485412541,-0.1587091826591521
0.018802775029191802,-0.1579710159428437
0.2766410098659264,-0.06420567167979706
0.27641335605101247,-0.06428904086653178
0.2922606331144217,-0.058505447442876536
0.29196513221457615,-0.05861313022038394
0.27867528071963343,-0.06346408138439923
0.2805463706049668,-0.06278146827315487
0.29805312492248026,-0.05639614719232874
-0.06189044779697482,-0.14241146264868274
0.012941716946280938,-0.1600984584182321
0.01499845449560325,-0.15935013747511262
0.010969412778584138,-0.16081584681685504
0.007097314831326521,-0.16221974029464006
0.0087979184084948,-0.16160296537177712
0.00521869664397825,-0.16290178756997153
-0.0033944427677090674,-0.16359993787038074
-0.0016405744667779823,-0.16423942196466326
-2.2575187070620988E-4,-0.16475893062254587
-0.010450562454376998,-0.1610436732186865
-0.009141510077834859,-0.1615166276140158
0.02271266078150518,-0.15655925160732861
0.02344401073434585,-0.15629557002502467
0.01914218840992897,-0.15784815378166217
0.020875465221898783,-0.15722269058257293
0.2746911875384567,-0.06492562990910385
0.27290118239190464,-0.06558596533523794
0.29995380953295747,-0.05570212139965766
0.29025526371839444,-0.059237899369992617
0.28640376179740984,-0.06064337961878029
0.2883565686398049,-0.05993165425289107
0.28446317584850034,-0.06135173044481587
0.28249890290501417,-0.06206895953886683
-0.059873750986951496,-0.1431872764646004
-0.022817900754992872,-0.15656398370883262
-0.020981759413289926,-0.15723032246186827
-0.018367849477249586,-0.15817283685709244
-0.01686947581254549,-0.15871340791897098
-0.02548232974315397,-0.15560051746534842
-0.02477196552011083,-0.15585568488852491
0.00903889116430834,-0.1615158280518766
0.003292854665909421,-0.16360143971514393
0.0015382085543216965,-0.16424260228397922
6.798368304278627E-4,-0.16455615583504932
-5.175479511364895E-5,-0.16482365651477704
-0.015103674759247407,-0.1593548649743964
-0.013047271558522196,-0.16010432665636198
-0.01107376843602522,-0.16081946052526647
0.02708030743247758,-0.15499125594256621
0.026669494853520815,-0.1551378461440388
0.024668670204975367,-0.15585630120356858
0.08533976044033277,-0.13382318499326673
0.08599825009516943,-0.1335858682540546
0.19441111421031776,-0.09418912175203835
0.1946269623054581,-0.09410989669856229
0.198555269866555,-0.09267824889044948
0.1995434524698686,-0.09232208306125947
0.2707896753831788,-0.06636041276064716
0.27056284811938097,-0.06644507822173633
0.30163263889870706,-0.05509021693317362
-0.059332264651728334,-0.14340548376997567
-0.01890892469863822,-0.15797825618501396
-0.028961618081439863,-0.1543612426311638
-0.02868694947458341,-0.1544579097505286
-0.02677315219758286,-0.1551382149141732
-0.03141043702461369,-0.15351109809082775
-0.030649593386695432,-0.15377316958535256
-0.03307650544447836,-0.15296681095039377
-0.03259934263611491,-0.15312306930013636
-0.04402465280132598,-0.14907356648776865
-0.04437097294572021,-0.14893295478573715
0.028582640973038254,-0.15445576606905456
0.0832784697464909,-0.13457403658811043
0.0871863950697889,-0.13315688301579537
0.0817133239584607,-0.13514463591117196
0.1888034137964681,-0.09629150995286873
0.18878747553857364,-0.09629720619033341
0.1870057526442437,-0.09693617917580587
0.19657856946044974,-0.09339484481547282
0.1946294846695319,-0.0941168304730147
0.19432487719311825,-0.0942307496129472
0.1855326345102764,-0.09748135192498489
0.19857070970163865,-0.09272069174601036
0.2003796741874857,-0.0920762316162437
0.27193251923466183,-0.06598843519855799
0.2709391830071367,-0.06631779234904987
0.27079224784420514,-0.06636748424756322
0.2766811068814929,-0.06431589512655013
0.27472657730008815,-0.06502291349620881
0.27472087947478274,-0.06500725063613788
0.274117766737863,-0.06522422175325976
0.27292393503966894,-0.06564851052030254
0.303308579494595,-0.05446792992911474
0.2776730399844787,-0.06396257484822049
-0.058143281100787814,-0.1439242526806609
-0.05799386113936631,-0.14398652366729303
-0.04892382361644214,-0.14728947886316937
-0.048319531375936406,-0.14749741064310315
-0.04631805743622299,-0.14820548787302046
-0.03460706820867794,-0.15249207594196937
-0.04257049901417371,-0.14970689303554957
0.030541054497114084,-0.15375942434306275
0.07261455919041285,-0.1384545786704228
0.0715587485648144,-0.1388366435893012
0.07090943778358108,-0.13907486663236596
0.0657094693459797,-0.1409970344241256
0.0676603005471843,-0.14027984950694866
0.06386964430491252,-0.14167251224031036
0.10477632047873137,-0.1267914063324174
0.10272485447143645,-0.1275248311907935
0.09113035898145905,-0.1317258533776503
0.09304752619947991,-0.1310290721235578
0.08914075036389069,-0.13244938554444255
0.08123416349243347,-0.13531932870636137
0.07543916564516419,-0.1374301904986381
0.07741950486645016,-0.1367078023251091
0.1057437536163914,-0.1264444768097593
0.16338462481270782,-0.10550503151258189
0.16139425692937354,-0.10623209544716793
0.16542640384313784,-0.10476458204249979
0.19074997926091744,-0.09561210808794253
0.19659247740652935,-0.09343307663229158
0.19280741096345932,-0.09489754410338092
0.19309980204795366,-0.0948222064748332
0.1689333317366254,-0.10351983554610969
0.16719539456974095,-0.10413707704071068
0.18495380295264524,-0.09778555275421527
0.1771098827522841,-0.10059666070013203
0.1790441794088708,-0.09991298369625169
0.2591382224755073,-0.07081068371535353
0.2610913895574849,-0.07009991994513838
0.25726870319825856,-0.07148852050021563
0.23766591023752343,-0.07866351722234113
0.23961566756964287,-0.07794338032607155
0.23580173680349648,-0.0793469121993614
0.35544305425302664,-0.010258174679385607
0.35329266801508374,-0.012526532300083987
