"Plane Section: Position[X] (m)","Plane Section: Position[Y] (m)"
3.5,1.5942837603632142E-4
3.2700000000000005,1.614865195057626E-4
3.04,1.671991336451448E-4
2.8100000000000005,1.762698116117439E-4
2.58,1.896951131819196E-4
2.35,2.138178994137268E-4
2.1200000000000006,2.457389499093737E-4
1.8900000000000001,2.868728766525784E-4
1.6600000000000004,3.50682175314341E-4
1.43,4.4537301033433657E-4
1.2000000000000004,5.435833459983505E-4
1.1760000000000002,5.952799112425175E-4
1.1520000000000001,6.138893530477839E-4
1.1280000000000001,6.377242655920337E-4
1.104,6.633996345382721E-4
1.0800000000000005,6.894782945828233E-4
1.056,7.16495030705844E-4
1.032,7.43558816247834E-4
1.008,7.75160823661771E-4
0.984,8.08146250679685E-4
0.96,8.403490146664838E-4
0.9359999999999999,8.778819430732207E-4
0.912,9.192943618686075E-4
0.888,9.622220197581552E-4
0.8640000000000001,0.0010087876351000799
0.8400000000000003,0.0010608473486728304
0.8160000000000001,0.001116742642976875
0.7920000000000005,0.001179578753453315
0.7680000000000007,0.0012471092345842341
0.7440000000000007,0.0013215585265194773
0.7200000000000005,0.0014060015403428172
0.6960000000000006,0.0015033401774794527
0.6720000000000005,0.0016168326538071878
0.6480000000000005,0.001745337975968124
0.6240000000000003,0.0018982839324744745
0.6000000000000003,0.002100193063167611
0.5760000000000003,0.0024016789020891347
0.5520000000000003,0.002886475663033312
0.528,0.0037007878148550295
0.5177836159300595,0.004000000000000549
0.5040000000000001,0.004443413359861025
0.46723313345522804,0.0040000000000005205
0.4560000000000001,0.002902191174032606
0.4800000000000002,0.005208196916554984
-0.4666137384958161,0.003999999999998867
-0.45599999999999996,0.003021319239558558
-0.4800000000000002,0.005207062665070471
-0.5199069402467801,0.003999999999999015
-0.5280000000000001,0.003757740350735613
-0.5040000000000002,0.00451605189450504
-0.5519999999999998,0.0029092865213504885
-0.5759999999999998,0.0024245081344807205
-0.6,0.002117317772612058
-0.6239999999999999,0.0019050155457142146
-0.6479999999999999,0.0017469635485836451
-0.6719999999999999,0.0016208804824102406
-0.6960000000000002,0.0015048813487622767
-0.72,0.00140762402019331
-0.744,0.0013234325273972546
-0.768,0.0012461889617712215
-0.7919999999999999,0.001178833144768845
-0.8160000000000002,0.0011164632827612665
-0.8400000000000001,0.0010599721737404235
-0.8640000000000001,0.0010084752178578672
-0.888,9.616226677528361E-4
-0.912,9.178901394008008E-4
-0.936,8.776538576062428E-4
-0.96,8.397343493600095E-4
-0.984,8.06145311321348E-4
-1.008,7.742767478813173E-4
-1.032,7.441584086797474E-4
-1.056,7.155918145170758E-4
-1.08,6.867291466420788E-4
-1.104,6.610980146816274E-4
-1.1280000000000001,6.35688120443956E-4
-1.1520000000000001,6.185620519369526E-4
-1.1760000000000002,5.979514607318971E-4
-1.2000000000000002,5.4093135626112E-4
-1.43,4.443773053017675E-4
-1.6599999999999997,3.501832789141766E-4
-1.8900000000000001,2.876086453315797E-4
-2.12,2.444543686543801E-4
-2.3499999999999996,2.136296026809775E-4
-2.58,1.903381226780979E-4
-2.81,1.763273545053565E-4
-3.04,1.6777911358387533E-4
-3.27,1.6171242782034333E-4
-3.5,1.5967415313854314E-4
-0.2864301823133392,0.029261787851023305
-0.28838354069269023,0.029972013011202486
-0.28448869207102,0.02855592071985768
-0.282523408150992,0.027841470050499
-0.28056995860469547,0.027131482244161113
-0.26103674410810307,0.02002808522987899
-0.25908341915524813,0.019317755152100772
-0.25721462324715066,0.018637929751047028
-0.27869796753377185,0.026451345789835157
-0.27291658589300893,0.024349481924235347
-0.2737027092765492,0.024635535334062132
-0.27080301839566695,0.02358069841554987
-0.26879884069631843,0.022851576856665765
-0.2630046027380082,0.02074380863493156
-0.2649433012564757,0.021449000199704905
-0.2943982085818248,0.032154642992797106
-0.2961809279852689,0.03280206694504585
-0.28970282799627,0.030451667905617104
-0.2922904440415587,0.03139063875196114
-0.29028349135821907,0.03066239723400023
-0.29808158288627135,0.03349190871086171
-0.2999617534849557,0.03417378437199139
-0.299983478804653,0.0341816281588694
-0.3016602428796013,0.03478005354656199
-0.2357330358604552,0.010819730593157396
-0.2375987557910793,0.011498874254392345
-0.24731591126257463,0.015035908055859186
-0.2493174105662636,0.01576441206424948
-0.23955185698608322,0.012209819018774989
-0.25517694975067046,0.01789659914074533
-0.25322372316624303,0.017185998834439532
-0.25065690113439126,0.016251894897378064
-0.25143439004707213,0.016534669369310494
-0.2766629858308107,0.025711709041802595
-0.27470953357950617,0.025001728666402
-0.26689654614394576,0.02215955022559973
-0.3020317382061207,0.03491535142025326
-0.23173946376419186,0.009366008209868057
-0.23369255982025727,0.01007696709145799
-0.22995369494537243,0.00871584976432767
-0.22783327725138586,0.007944075064749182
-0.22583437362336048,0.007216427520326344
-0.24541117646071098,0.01434260966144748
-0.24345806675164,0.013631688286117348
-0.24152221647355265,0.012927038701584508
-0.3032731165850339,0.03536372452004217
-0.2142519822130758,0.0030001099506393614
-0.21611474028475774,0.0036782136222720152
-0.22392709456179502,0.006522131416851988
-0.22197400422146657,0.0058111568335274845
-0.2200408673677522,0.005107440795522208
-0.2180678279024511,0.0043891956849713126
-0.3033831877041758,0.03540191605720453
-0.20847329764557418,8.963332668066226E-4
-0.21025548988174064,0.0015452332325378286
-0.2043530356762926,-6.035896615993395E-4
-0.2063493429015824,1.231914870457387E-4
-0.21220857223454792,0.0022562297584351404
-0.30350004516912854,0.0354267385852336
-0.2040261363469743,-7.226076729472126E-4
-0.30360467847253625,0.03543292137151319
-0.18955338386171433,-0.0059964508033405126
-0.19072626464596582,-0.00556912270527188
-0.2004904438054489,-0.0020107539800428573
-0.202443326290981,-0.0012992083974909079
-0.19856028093488026,-0.0027142304715251035
-0.19277241195040543,-0.004823539402439467
-0.19463196717927167,-0.00414586001700797
-0.30380402727110845,0.0354614181401112
-0.18486789741600895,-0.007704529265307947
-0.18287433694079555,-0.008430844845283069
-0.18877342209265,-0.006280777985870558
-0.1869953085511755,-0.00692967171820528
-0.1965848144623917,-0.0034342177296987865
-0.30421760150129357,0.035560610811152256
-0.1790092922075948,-0.00983928207320673
-0.17708171567776212,-0.010541431749778882
-0.17315050936621312,-0.011973546904457143
-0.17510341369368285,-0.011262061324037665
-0.17129388715562086,-0.012650012838716283
-0.18096215751666606,-0.00912768930509649
-0.3048526589391866,0.035727644415135984
-0.16924471704172478,-0.013396562926789753
-0.16719019563415344,-0.014144983293046635
-0.304819023384178,0.034978886587950064
-0.3008114718154395,0.032499392989837464
-0.3019251676112688,0.03285158201700714
-0.16542658597444973,-0.01478728010852786
-0.16534708122345412,-0.014816235223428847
-0.16139497492276908,-0.016256265456600735
-0.16338588757679282,-0.015530699678199835
-0.30529458393212405,0.0345342748816516
-0.30273315547031504,0.03307116962096017
-0.3045389693266058,0.03416500565993987
-0.29899543997616634,0.03172576059553101
-0.1516688337955992,-0.0198006355887324
-0.14981523149080483,-0.020476077132719685
-0.15948014525916504,-0.016953853074689593
-0.15752734948633226,-0.017665636866246663
-0.15560263232517174,-0.01836718677878344
-0.29536165505673584,0.03033079585270053
-0.29687387582784136,0.030874129949951597
-0.29209622878117064,0.02865544376224629
-0.2929677085289971,0.028968718848468
-0.29882696770803807,0.031637209222593415
-0.1457111132683913,-0.02197140982756731
-0.14776297930305798,-0.02122348082882354
-0.1419046309645141,-0.02335893928556288
-0.14394744759249686,-0.022614270602037193
-0.1536216239806674,-0.019088836446998637
-0.13991641834226173,-0.024083885945835576
-0.2950456927146295,0.029942087590748324
-0.2909998283584072,0.02720323749953948
-0.2894948432276318,0.026590340927775638
-0.2884603846166234,0.02463717102500746
-0.2890615920403876,0.025892706477012813
-0.13799892188122687,-0.024782183980332675
-0.13604629065988172,-0.025494419812314786
-0.13590863366948172,-0.02554473229138106
-0.1301895927990869,-0.02763441230689849
-0.12833956722782747,-0.028310307715736775
-0.28710857907433657,0.02331154860911662
-0.28658347653484895,0.02268396455551326
-0.2844049294112672,0.020730744993305416
-0.2851555340528142,0.02146890683630802
-0.12628471562703453,-0.029059942350274127
-0.13412531291820862,-0.02619776393309611
-0.13214217436297415,-0.026922040060598715
-0.2832024858295008,0.019700030142320357
-0.28223324007463535,0.018777525728758716
-0.1242357708655523,-0.029808102650877123
-0.12032473382449414,-0.031236071016470374
-0.12042750305796994,-0.031198520886494746
-0.28124944272480445,0.01781322719754225
-0.12247212529003267,-0.03045174516942058
-0.11843084999492905,-0.0319302360875207
-0.1068663882666116,-0.03615131240919561
-0.10871332526950847,-0.03547635745480656
-0.2803127597437544,0.016824317368001242
-0.11457180428291835,-0.033341257975812194
-0.11652390321204711,-0.03262755988052618
-0.1126526357527301,-0.034041069538800386
-0.11066612482974392,-0.034764584067647306
-0.09895054432603598,-0.039038567228055765
-0.09696705232612882,-0.03976036975925486
-0.10480783513194941,-0.03690020361676198
-0.10276070639357351,-0.03764555104374495
-0.10099722961820648,-0.038290392646031124
-0.2792964192561021,0.015474036732177187
-0.27886403240070096,0.014871129483798925
-0.09504545955733726,-0.040463526981370436
-0.09444553741446127,-0.04068434582279761
-0.2780570093212771,0.01291796945292677
-0.08723147368000146,-0.04330296259646978
-0.08918521432511492,-0.042593774469524434
-0.0857678545547367,-0.04384319064719977
-0.08332693418164837,-0.04472942026538783
-0.08434950046165608,-0.04435949903948923
-0.08127891459642117,-0.04546451067017884
-0.09309519151757711,-0.04118225472440077
-0.07548346836611397,-0.047574139503730684
-0.07746403678746559,-0.046852381982678395
-0.06390630065279934,-0.05179543710658975
-0.0657439220890873,-0.0511139092283059
-0.2780525381710154,0.010964844257016288
-0.09052717917201344,-0.04211070420145635
-0.09117724321161082,-0.041876890756241444
-0.08539081810241882,-0.04398569297685943
-0.07951327760579086,-0.04610416231367152
-0.07355627783418671,-0.048269995466652976
-0.07160243973460197,-0.04897891587580983
-0.06968843712735465,-0.04967583787277781
-0.06769594990132229,-0.05040001576734373
-0.06296278944874921,-0.05214467654438591
-0.27898107258053256,0.009011759558439776
-0.06185300600553961,-0.05257779186598528
-0.28104398591394325,0.007058724097857471
-0.27929671224795083,0.0087238882035223
-0.2850303191711402,0.005105772123790988
-0.2832030821715325,0.005961090622103656
-0.28124991420756795,0.006950881728600385
-0.059814243471360856,-0.05333049435699111
0.2591136371393552,0.019215649781117
0.2610670438705799,0.019925754995935654
0.25724480437538433,0.01853592574045647
0.2395858738825904,0.012097275044055916
0.23763362856489006,0.011383978440919287
0.2357689223077113,0.010702049340313675
-0.2851562459455512,0.00506783034964067
-0.05804951681640165,-0.05397340035095649
-0.055997108600105,-0.05471998329652952
-0.05414359410061839,-0.05539665291743602
-0.04428672116140431,-0.05900823235859334
-0.04245179421735594,-0.05968756522898366
-0.002721208046394699,-0.0740152064356662
-0.0015942405862309982,-0.07442386763657614
-3.471122049793423E-6,-0.0750018705310095
0.2336440299574351,0.009924546636788855
0.23372966118944477,0.00995594739561081
0.26497414028351046,0.021345187920548465
0.26303511254160694,0.020640901116125637
0.2552071795174954,0.017794461555470334
0.2532541027013264,0.01708344978408097
0.25146533718114217,0.016430560627367148
0.24734722118932645,0.014930802472438408
0.24934830954826356,0.015660435698962607
0.2454429965100823,0.014236102330859198
0.24349050823817495,0.013523473329057177
0.24155544297096965,0.012816666639850437
0.2766971957561134,0.025598633351581985
0.27474319151583526,0.024890170001074626
0.27294978329013647,0.0242391888302218
0.27873280370388476,0.02633654902667108
0.2806054413608836,0.027014908471207254
-0.2890625444830798,0.003949674016147733
-0.2871093960428504,0.004489663835529701
-0.05401955781895451,-0.05544194025314809
-0.052095601442186126,-0.05615477112698952
-0.05014909441892629,-0.05688383078217191
-0.04824187998753321,-0.057590820922943695
-0.046243648727422294,-0.05830779904216736
-0.040389883728466275,-0.060455848420010526
-0.03835205838052476,-0.06120329903717779
0.007150347586280566,-0.0724071984886968
0.008875634822582905,-0.07178555241354488
0.0033440093731778534,-0.07378536460893026
0.0040683749846080145,-0.07352268465855262
0.0052708319784795345,-0.07308728402180811
0.0015877699277442206,-0.07442378716432638
-0.0033501811456468473,-0.07378753091098325
-0.0051683380881961906,-0.07313673498511664
-0.00664656540965611,-0.072617128580535
-0.005279360632706329,-0.07309783928811085
0.08539820890750144,-0.04402509287868672
0.08723860984174908,-0.04334165972693685
0.23177877654645748,0.00923891186461261
0.22999491370360003,0.008583516040299513
0.22787599963005256,0.007807609618300432
0.22587904172817863,0.007074615488039256
0.21517792331156443,0.0031419157521618366
0.21617000140472376,0.0035072934572793826
0.2708354988271975,0.023472375551726023
0.2688307214430579,0.022744901916728923
0.2669278494990526,0.022054461954319534
0.28066100388349446,0.02703501455300761
0.29622453684648054,0.03266795369223065
0.2944405957784247,0.032019760487923196
-0.29214523310876683,0.0031529559465320444
-0.2910156916012224,0.003440143371893162
-0.03751045422696719,-0.0615138657424862
-0.032784295659448445,-0.06332792018552422
-0.03454769466860953,-0.0626356981331953
0.00909364801676639,-0.07170776206341609
0.010706440111548313,-0.07113778019506788
0.011030809211155602,-0.07102594510219593
0.012093006514769116,-0.07066092408205905
-0.0071657479697874015,-0.07243866999274134
-0.00810541695691268,-0.07211382383529441
0.0677054033092509,-0.05044507716740879
0.06575123417391684,-0.05115308741129959
0.06391136260987051,-0.05182843530623718
0.059806684705508,-0.05332882361717375
0.061848136825505697,-0.05258350915902031
0.058042024921966695,-0.05397191350630212
0.05599064928267304,-0.05472133371377741
0.0540134036458228,-0.055444129682439364
0.05237057497023427,-0.056044684826251356
0.08919402117219871,-0.04263706284693747
0.08536144279730452,-0.04403861258581782
0.0754953676688454,-0.047625923891170104
0.07747665943737311,-0.04690615380632483
0.14986292578437954,-0.020626210349905076
0.15171493816869452,-0.01994639975807911
0.22397366776540928,0.006375084437210611
0.22202249698428425,0.005658835170438723
0.22009146326732063,0.00494934000479016
0.21812065617229334,0.00422496065108415
0.21430996557555582,0.0028217094483888126
0.20853956966336268,6.951566751142242E-4
0.21031889230926196,0.00135194189598617
0.20442532623652182,-8.213043600757948E-4
0.20641849349945457,-8.589502676814519E-5
0.20056891916442185,-0.002245463877082319
0.20251863514981244,-0.0015252170521486634
0.19864241421649348,-0.0029589920132253086
0.2122692422683377,0.0020704466573340683
0.29032459412996947,0.030530293318690803
0.2923319564180936,0.03125734204466343
0.2864695482237356,0.02913454125247271
0.2884238756663269,0.029842089208513816
0.2845270166056483,0.0284315374860274
0.28256063957977906,0.02772009094945422
0.29813157879743307,0.033359276776218263
-0.2929688350149604,0.0030159573244380156
-0.03659046489934185,-0.061855575106906854
-0.0325904092376485,-0.06340522154129352
0.013017289987659495,-0.07034746831194183
0.01402373894138536,-0.06999990679854033
-0.009976428291784134,-0.07147435768907173
-0.009124028713533948,-0.07177574438309815
0.042439653753980025,-0.05967331366123786
0.04427706922253542,-0.059000816141983756
0.0403762050727964,-0.06043737438115813
0.03834184766521013,-0.06119435574264082
0.016857969993372704,-0.06900755363986788
0.01889829377034627,-0.06827480854430776
0.0735690597806467,-0.04832420389326066
0.07161464785817764,-0.049031546994907
0.06969954218295737,-0.04972543799555501
0.05208646618889561,-0.05614877199781755
0.05013493635124551,-0.05686403463168169
0.0482260043893036,-0.057566308317101945
0.046232066665006094,-0.05829508196055191
0.09116410236878847,-0.04192690244933095
0.09118570506665243,-0.04191923309322344
0.0931068485173776,-0.04123337765545664
0.08334050009523844,-0.044785786648676044
0.08077031480232563,-0.04570942084287129
0.079526882087475,-0.046160631499984964
0.08129240336493654,-0.045520662606923855
0.15952851707131077,-0.017105846940842516
0.1613099563264633,-0.016461772955234957
0.15757480802683976,-0.01781512144468822
0.15564967180038458,-0.01851552007026904
0.1419759813824782,-0.023574076814815832
0.1399916691742763,-0.024309741530921018
0.15366806990108853,-0.019235538888158547
0.1495927741078086,-0.020725902559493005
0.14577637624704726,-0.022169819499416793
0.14782410263763301,-0.021410515121248648
0.14401338396910793,-0.022814530893371147
0.18887742716828831,-0.006585640957083026
0.19082534274269022,-0.00586044687565689
0.187103158545836,-0.007245100352767613
0.19755419514111533,-0.0033653685561007675
0.19286738986103474,-0.005103596680998229
0.1947232398734886,-0.004415735718169316
0.1849825138248411,-0.008038551109937567
0.18300032599994875,-0.008796117180620717
0.3000429313939461,0.03405018504011245
-0.29687510680768403,0.0025139662273143022
-0.2949219723318369,0.0027322350047965125
-0.30468761699558683,0.002279419832150595
-0.3027344929990349,0.0022562593194252723
-0.30078136691614404,0.002281165318479766
-0.29882823829657085,0.0023645131631103867
-0.019680831657601316,-0.06800419408381804
-0.018904946833503765,-0.0682739773676992
-0.02196405797096212,-0.06726669651252531
-0.020991970457490766,-0.0675650243721985
-0.016864889186376044,-0.06900745462909544
-0.030688947593718482,-0.06418795245754369
0.015086705638439,-0.06963396599055517
-0.015098950266655805,-0.06964853456617504
-0.013040747315325221,-0.07039306855836984
-0.011064416186775812,-0.07110052544174232
0.03657856110655881,-0.0618419821419139
0.03544180960368733,-0.062267844812612626
0.022921510562945214,-0.06691788368172986
0.02283760925505113,-0.06694390890787105
0.020440041395200854,-0.06772730449744042
0.020976270409759787,-0.06754100752190585
0.10486491558444846,-0.037076138778995474
0.10281124146393186,-0.03780350054846114
0.0994803277110374,-0.03896287815948915
0.09898051499254731,-0.03914001035436386
0.0969915724704736,-0.03984683564593475
0.09506407917721132,-0.04053378001681937
0.13961030702076385,-0.0244523708838796
0.1075754878190612,-0.03611051687632093
0.10877495683935867,-0.035664797833769316
0.10657896823403651,-0.03647317135966255
0.15984205281971312,-0.017089612108163107
0.19667211540230822,-0.0036931794459856503
0.18271632653594863,-0.008905638905338693
0.17722720868629913,-0.010960298517176455
0.17914861957100628,-0.010241206446612233
0.30174438192144243,0.03465819667656843
-0.30859386088546487,0.002420273713480779
-0.3066407394441367,0.002338244199178798
-0.31640634405865725,0.002808110897042179
-0.3144532235141701,0.002705419325289042
-0.31250010291248487,0.0026040455289335343
-0.022881674012474037,-0.0670458274635842
-0.030050044675809587,-0.06446370218545952
-0.023154945912902406,-0.06697365183365989
0.034534363284279064,-0.06261819109720494
0.03274858326172002,-0.06334160477473116
0.024746087213353612,-0.06639433896282865
0.10103919812042719,-0.03842480323289514
0.12433997185879248,-0.03011351292864088
0.1263902048882587,-0.029368892019410404
0.1228136619204466,-0.0307054812901678
0.13808273363605017,-0.025031563775803563
0.1361415125208763,-0.025775153216443636
0.13422567952435593,-0.026492635310663683
0.13029459440479696,-0.027942020953825586
0.1322417634866745,-0.027214775624090692
0.1284480411386391,-0.028627458336907143
0.1152650274545235,-0.033452588495394134
0.11467269102984529,-0.03363756496620837
0.11275190925258326,-0.03433294387880169
0.11030423115425482,-0.035117469655504344
0.1069359211910991,-0.03636146516300199
0.12258886457741802,-0.03079160919114692
