"Plane Section: Position[X] (m)","Plane Section: Position[Y] (m)"
3.5,7.986281184780083E-4
3.2700000000000005,8.101848625375509E-4
3.04,8.421710385196247E-4
2.81,8.876609348505952E-4
2.58,9.627407485956628E-4
2.35,0.001087266930482755
2.1200000000000006,0.00125223340633474
1.8900000000000001,0.0014782139950203664
1.6600000000000006,0.001827941856661483
1.4300000000000002,0.002339134951962347
1.2000000000000004,0.002882504108366839
1.1760000000000002,0.0031815269313846643
1.1520000000000001,0.003305299721975163
1.1279999999999997,0.0034471289696082195
1.104,0.0036068006241174143
1.08,0.0037999762205758163
1.0564540888393439,0.004000000000000043
1.056,0.004003911608049563
1.032,0.004233589313850124
1.008,0.004486750673054931
0.984,0.004729136740607148
0.9600000000000001,0.004984685175260561
0.9359999999999999,0.005261982728545487
0.9120000000000001,0.005551851003893127
0.8879999999999999,0.0058668727969836115
0.8640000000000001,0.00621045859567811
0.8400000000000001,0.006589468084294074
0.8160000000000001,0.00700289536876673
0.7920000000000003,0.0074940636668172095
0.7680000000000005,0.008031784777274377
0.7440000000000003,0.008636264722284825
0.7200000000000003,0.009301670400838668
0.6960000000000002,0.010005980341114195
0.6720000000000002,0.010936227804551227
0.6490401060534857,0.011999999999999914
0.6479999999999999,0.012050862113566907
0.6240000000000001,0.013329771929422033
0.6000000000000001,0.014896567401509762
0.5760000000000003,0.01695811373527017
0.5520000000000003,0.019435386749220594
0.5468708902125796,0.0199999999999992
0.5280000000000002,0.021977174776979642
0.5040000000000004,0.0240280015793742
0.4800000000000004,0.027625438089168102
0.4785695173891233,0.02799999999999868
0.4560000000000003,0.03305967625879591
-0.4786311782722522,0.027999999999996895
-0.48,0.02766599494395445
-0.504,0.024052915920395542
-0.45599999999999985,0.03266000014031369
-0.5472728163154729,0.01999999999999798
-0.5519999999999999,0.019480743271716554
-0.5279999999999998,0.022015501985423038
-0.5760000000000001,0.01702549119319855
-0.6000000000000002,0.014913452255721344
-0.6240000000000003,0.013322846300514706
-0.6483132025635527,0.011999999999998652
-0.6720000000000004,0.010951410987849922
-0.6480000000000004,0.012014680546458645
-0.6960000000000003,0.010033669685339301
-0.7200000000000002,0.00925816736574935
-0.7440000000000003,0.008596665430619332
-0.768,0.00800062609846641
-0.792,0.007465802223280014
-0.8160000000000002,0.006982708281525868
-0.8400000000000002,0.0065596160018695174
-0.8640000000000001,0.006182181437384833
-0.8880000000000001,0.0058359205246895
-0.9120000000000001,0.005510211912264513
-0.9360000000000002,0.005231456764716377
-0.9600000000000001,0.004963459111392257
-0.984,0.0047027658031545405
-1.008,0.004469518922679961
-1.032,0.004234125304960009
-1.0573695138577048,0.0040000000000001345
-1.08,0.003813286038984406
-1.056,0.00401144254747394
-1.104,0.003632404205069377
-1.1280000000000001,0.0034774272608993585
-1.152,0.0033297204146522487
-1.1760000000000002,0.0032027126718014677
-1.2000000000000002,0.0029069311439450522
-1.4300000000000002,0.0023507384028348937
-1.6599999999999997,0.0018321000624246329
-1.89,0.0014841298292887104
-2.12,0.0012472213038301062
-2.35,0.0010813553426181643
-2.58,9.679467148861258E-4
-2.81,8.927058961395623E-4
-3.04,8.388468438165283E-4
-3.2700000000000005,8.084049956052507E-4
-3.5,8.025146820262868E-4
-0.30165388629983925,-0.020506682798636745
-0.2999869930137209,-0.02111335945727603
-0.3515699880856794,0.022907286208495536
-0.3508211651346514,0.022060896250927095
-0.35547552223605794,0.02792496182233887
-0.3541190613676551,0.025967616813096055
-0.3566964147019087,0.029874234572890228
-0.2944066976844003,-0.023145884014763585
-0.29618872144023306,-0.022497016509621947
-0.29230008028707766,-0.023912938585228867
-0.29029394561681315,-0.024643417040357204
-0.2883944587130394,-0.025335074372538915
-0.28644143617414086,-0.026046222006831467
-0.28450029480580935,-0.02675304749770283
-0.282535382130716,-0.02746851799080118
-0.2805823579431266,-0.02817967427332626
-0.3033550759389821,-0.019885893462732153
-0.29808798227315936,-0.021805343981480263
-0.34789395576831117,0.01815422857595518
-0.34661918576593875,0.01620092168017221
-0.34766446595916073,0.017805335260278315
-0.3584321548513818,0.03378073225677886
-0.2787108576052174,-0.02886115879153506
-0.30336271952495086,-0.019883114427394964
-0.34571173103199077,0.0150711716738684
-0.3449330202466435,0.014247556089148246
-0.34345368923594755,0.012294220007932734
-0.34375892781822237,0.01281562951260657
-0.35938075323259233,0.035067445726806354
-0.2610521298805272,-0.03529127503354614
-0.2590991134875409,-0.03600245272208096
-0.25723053291572073,-0.03668286964415
-0.27667631778302126,-0.02960200939911803
-0.27472329142628654,-0.030313159724610732
-0.27293056073392985,-0.0309660025309533
-0.27081724432533977,-0.03173547578904684
-0.2688132794397814,-0.032465181939662774
-0.2649581733563005,-0.03386894901344086
-0.2630197165698758,-0.03457480461162414
-0.3034970031613741,-0.01983696240097302
-0.3418061513702313,0.010372485775396187
-0.3417800761509669,0.010340856207810022
-0.36122606382558986,0.037687380913322514
-0.2551930682785954,-0.03742477398244862
-0.2532400504697051,-0.03813594778254255
-0.2514508221460193,-0.03878756507668446
-0.26691119867479085,-0.03315779583665225
-0.30360034628964083,-0.019803258661671094
-0.3399926127432804,0.008387476164262452
-0.3382412527247925,0.006434101271713259
-0.3398533299570564,0.008244503438049161
-0.36328622486014184,0.0405233444545746
-0.36412529791873965,0.041594044596972454
-0.23575028168793855,-0.04450473898161811
-0.23761590800157756,-0.043825338191410435
-0.24933401374374203,-0.03955829233929764
-0.24733261537645096,-0.04028707359772969
-0.2395689265220975,-0.043114166345637916
-0.3037391343909077,-0.01975795779863721
-0.33790051298148505,0.006085417918670306
-0.33652438438921994,0.0044807313002115795
-0.3346006576891506,0.0025273318155048284
-0.3359476947018256,0.0039354727277090586
-0.36519059860297726,0.04550044662690653
-0.23175686959790698,-0.045958900848703146
-0.23370989091732214,-0.04524773668942121
-0.22997118100326613,-0.04660927960957288
-0.22785086805975563,-0.04738134204033671
-0.22585204378443374,-0.048109207536260204
-0.24542797730775567,-0.040980637692489316
-0.2434749616377474,-0.04169181736649869
-0.2415392049514018,-0.04239672401798837
-0.3038427913875818,-0.019728011230715863
-0.3324809451484017,5.739043688064443E-4
-0.33399484744222024,0.0019886482713507
-0.3657240225077273,0.049406772772118926
-0.21427012556814512,-0.05232682476836869
-0.21613279105015293,-0.051648466799480236
-0.22394483268206064,-0.04880369029985035
-0.22199182473649423,-0.049514891187166524
-0.22005878456505368,-0.0502188727647145
-0.21808581270224595,-0.05093730355381375
-0.3040381100083026,-0.019666359485332848
-0.33204197974923905,1.8504153034773808E-4
-0.3302523245399302,-0.0013795386161860777
-0.3278339817696676,-0.0033330086695051134
-0.3281361934732232,-0.003065483059128138
-0.3671908268795283,0.05207433530853294
-0.36804602540174103,0.05331335410016612
-0.20849166767261124,-0.05443122397958714
-0.21027378577181177,-0.05378212042748746
-0.21222679975779263,-0.05307093612870107
-0.30428973571502305,-0.01958650238655543
-0.33008909793178765,-0.001519566673919137
-0.3261833090841657,-0.004752066807594447
-0.32559565865655726,-0.005286453038788043
-0.3233459217666598,-0.007239899036513033
-0.32423043106563304,-0.006483301621296257
-0.3703093342942527,0.05721992705413283
-0.20837766163582638,-0.05447274374323148
-0.20437188206684936,-0.05593245516987759
-0.20636793263784306,-0.05520496917530314
-0.30461080608561664,-0.019481304876102747
-0.3209679480533756,-0.009193363330234613
-0.3222775455580884,-0.008162045911172266
-0.4257861702415496,0.040910624698122386
-0.4249179491957235,0.04160271809768251
-0.4277396782722215,0.03822609828886118
-0.4262483814157369,0.03964978289523694
-0.4296928221706311,0.038093778486516745
-0.3729944015164198,0.0650328102215963
-0.20246221207425624,-0.056628181995616894
-0.20050950465031378,-0.0573402081928922
-0.19857956214767142,-0.05804428966677423
-0.1944297428507027,-0.059557105542049675
-0.19465138289262934,-0.05947628819668436
-0.30496092447658507,-0.01937556098100088
-0.3055214023334383,-0.019186416106943313
-0.3054924340406624,-0.01919394993419204
-0.3203246410044618,-0.009707295978515058
-0.31837170043503316,-0.01100011095822596
-0.3181800274666977,-0.011146886112520762
-0.3154911502785783,-0.013100394763932415
-0.31641877550239533,-0.01240252437606761
-0.42187938535686154,0.044659358080349355
-0.421552393961658,0.04550848796186682
-0.42383287801819813,0.04208255550272119
-0.42238535691273155,0.043555481783735125
-0.4316459771110716,0.03788406496228218
-0.4323557342872967,0.03769752923280503
-0.3750009150483955,0.06897944063546971
-0.1848879103699862,-0.06303659658331032
-0.18289448978781878,-0.06376329620698022
-0.19074629659624912,-0.060901242878480824
-0.18879364338332735,-0.06161341795322181
-0.18701527128613815,-0.06226160120880454
-0.19660415477585236,-0.058764439021238596
-0.19279214627793068,-0.06015484239874615
-0.30563417448788205,-0.019106354347548753
-0.3144658581595241,-0.01385813455439281
-0.3125129018841126,-0.015040866162594608
-0.4335991766728906,0.03736159974399941
-0.41870687619682256,0.04941433202162304
-0.41797201555905933,0.05250775316558779
-0.41760829796745025,0.05332042532336911
-0.3769653181874159,0.07284587684569907
-0.38127540125539394,0.08065899185986058
-0.38281147361403195,0.08258753032553473
-0.3876734144531674,0.08847240476633628
-0.39062272556194566,0.09133569687904163
-0.1771020847610576,-0.06587447650641785
-0.17902953453642256,-0.06517197882915808
-0.17483445895223737,-0.06670059305530891
-0.17512381136115285,-0.06659518447712418
-0.1809823072078896,-0.06446013181843004
-0.31249389929474325,-0.015053947412113166
-0.30576457274761976,-0.019046333772127434
-0.3066539987655065,-0.018348705422080506
-0.30619904735413556,-0.018961095560464433
-0.43555238815543396,0.036755582070199966
-0.4140651494826967,0.0568255599128437
-0.4138057672079316,0.05722613284272632
-0.3966347697732418,0.09628618339381918
-0.39843429866474345,0.09783288562500646
-0.4062461055473354,0.10269150955962393
-0.17317094786210752,-0.06730678205187346
-0.17131444877080335,-0.0679835859630606
-0.31055994948929494,-0.0162507968943004
-0.3093590442406099,-0.01700751969274875
-0.308607000922705,-0.017487559693904097
-0.4373942448792269,0.035745123074903476
-0.4375056671627903,0.03567628232130336
-0.4135904561078778,0.061132352163288856
-0.4087797507706298,0.10410041624034913
-0.16926597786956143,-0.06873205613401333
-0.16721184048700685,-0.06948153101780559
-0.16141654379566678,-0.07159260414357138
-0.16340754162039192,-0.07086727246301736
-0.43945894796908663,0.03458437377958908
-0.4127428840070903,0.06503848127695751
-0.40136767424763653,0.07284935841539714
-0.40625126370699416,0.06653791809226056
-0.4026472734747457,0.08066204105980543
-0.4062485331533685,0.085676395151086
-0.40866729428527404,0.08847540003677985
-0.414059859338582,0.09390423173052828
-0.417123940724226,0.09628910665567607
-0.42187125061172104,0.10167586629740578
-0.4140580283934888,0.1067373437792776
-0.42187048668320926,0.10703024870212768
-0.15168981584053248,-0.07513536178969081
-0.14983604749936275,-0.07581034719404282
-0.15950168962892491,-0.07229012434844617
-0.15754875774333288,-0.07300153411609463
-0.1556239445402214,-0.0737028200525392
-0.1654482704129339,-0.07012393648852111
-0.44141213533444623,0.03414739368940819
-0.4105932542583526,0.06546137476994741
-0.4099876350684234,0.06562586620488367
-0.42756769393055083,0.10410309678207239
-0.14573172808354803,-0.0773051270536246
-0.14778378819152194,-0.07655773127417445
-0.14192516880759187,-0.07869244466784647
-0.14396800307782587,-0.07794782468775335
-0.1536428811091922,-0.07442431832638591
-0.13993703448602796,-0.07941760606569835
-0.4431955112313583,0.03379282574203467
-0.13802029081038272,-0.08011797139293939
-0.13790773788385807,-0.08015911886585628
-0.13021220898613262,-0.08297362254656039
-0.12836204493775202,-0.0836491370218509
-0.44336531540102087,0.03376157082512703
-0.12630723936756044,-0.08439889765574965
-0.13606908463475942,-0.08083412040562557
-0.1341477053790615,-0.08153636078485327
-0.13216445620226253,-0.08226033249983498
-0.4453184718211603,0.03354148609103177
-0.1242583773283231,-0.08514728453608575
-0.44727160332290283,0.03349605461346272
-0.12407885367551999,-0.08521315326860568
-0.12045411175399742,-0.08654869286844448
-0.11845799258984249,-0.0872818729898083
-0.4492247522804656,0.033328275150428785
-0.12249745110176966,-0.08579839466842122
-0.11720958698170902,-0.08774221833819815
-0.0989725735030067,-0.09437615699541241
-0.09698763733243806,-0.09509399355347273
-0.10690345456028351,-0.09153019942256112
-0.10875122985575329,-0.09085754732576759
-0.1003159012701616,-0.09389374680778656
-0.4511779190104922,0.03303592825327918
-0.11655360116636956,-0.08798621362761931
-0.11460295512018184,-0.088703900900324
-0.11268504919046637,-0.08940717959321831
-0.11070239327159823,-0.09014128088369092
-0.0950634018425775,-0.09578989221295225
-0.09310729987932763,-0.09649259612904527
-0.1048440456778597,-0.09227674068338755
-0.10279452762938157,-0.09301552643776273
-0.10102466049318538,-0.09364281769554818
-0.45313109585202405,0.03267270977763697
-0.09119081652117109,-0.09719125627865377
-0.08725266542181673,-0.0986382531593137
-0.08920396239942052,-0.0979223535123096
-0.08541071335713799,-0.09931741961846438
-0.08501287857960302,-0.09946606426172358
-0.06409731014615046,-0.10708208819355627
-0.06577264066369166,-0.10646987372839727
-0.45501478214875757,0.03184138701897875
-0.45508434439350864,0.03180694562445792
-0.08335164312183559,-0.10007436862428423
-0.08130711050463327,-0.10081903801778157
-0.07749282287585164,-0.10220853039890551
-0.07551251645162105,-0.1029310072460608
-0.0678789469874812,-0.10570507390027087
-0.06772626865267449,-0.10576037564035247
-0.06393184733966684,-0.10714268737784839
0.2961675109187088,-0.022597859260910035
0.29438509652595424,-0.02324770266980329
-0.4570375835270627,0.031007121743436762
-0.07954211816352683,-0.10146046090049937
-0.07358827191579712,-0.10363495525243993
-0.07163586101830002,-0.1043477957878779
-0.06972065870545682,-0.10504142306169323
-0.0618750577887028,-0.10791543474222212
-0.005569786005290067,-0.1283270247375951
-0.005298258230106661,-0.12842539197915193
0.2610406925325665,-0.03542114469952309
0.2590888028221631,-0.03613541956256673
0.25722140311601194,-0.03681908256960422
0.27665754620301436,-0.029711717498879894
0.27470463389699973,-0.030423181555948066
0.27291218793781186,-0.03107680727599752
0.29963629817032666,-0.021331734004479637
0.29997009700867155,-0.021209896327573613
0.29227861478663136,-0.024015471329993245
0.2902726297854629,-0.024746227719138543
0.28642036782536623,-0.02614961776935288
0.28837319771543823,-0.025437955977936404
0.28447952705108337,-0.026857267975860896
0.28316991459053437,-0.027334677592447197
0.2786918606166582,-0.02897024704578316
0.2805627826042222,-0.028287172571122843
0.29807055582521147,-0.021905263058371472
-0.45899077645309216,0.030531166849264955
-0.06033993563456164,-0.10849188756368551
0.012964892429524656,-0.12562275680751936
0.014172426811841742,-0.12518596496965023
0.010992073986868273,-0.12633873264002776
0.0052416682510396054,-0.1284256635158772
0.006146451841645516,-0.12809766390329053
-0.0033726760622318384,-0.12912426010584274
-0.007177396205875103,-0.12774680102897099
-0.0016185937260106411,-0.12976387652242277
-8.041129346193623E-4,-0.13006235793094353
-0.007941326596051861,-0.12747169254151217
0.016790578124549486,-0.12424166525684435
0.018373830949309986,-0.12366978822520601
0.27079938802492565,-0.0318477004511481
0.2687963585379721,-0.03257997798250805
0.26741992227482314,-0.03308315707816521
0.2649443375782497,-0.03399222561687707
0.2630071839470738,-0.03470166344163911
0.25666404319277214,-0.03702398275348889
0.30164772138915763,-0.0205979688134547
0.2825150293596971,-0.027573879116973805
-0.4609439716324156,0.030039418599074157
-0.05984095606383673,-0.10868093417288552
-0.05628551252339017,-0.10996823201699142
-0.056021285968636564,-0.11006346079758823
-0.054042181423765406,-0.11078115017844195
-0.05211525835203845,-0.11148583037107841
-0.05204710911161464,-0.11151156955139888
0.015023542671972975,-0.12487969282069834
0.009062445291790741,-0.1270411933627622
0.007120894233614303,-0.12774524949654814
0.003315528490416992,-0.12912456592317872
0.00156058509341836,-0.1297646670459834
0.0010039474260399232,-0.129968551588045
-2.9350088088452953E-5,-0.13034877849637488
-0.011054412324828438,-0.1263500234721585
-0.01131080678290937,-0.12625708938120847
-0.009122584187006257,-0.1270484184644258
0.02131930626293392,-0.12261669452433566
0.020904869150694554,-0.12276410757939905
0.018829798125094648,-0.12350588915782006
0.1848793774515602,-0.0631744683227306
0.18627876999703433,-0.06267237072268578
0.18288497085985414,-0.0638984586094289
0.26689559145904573,-0.03327620305060542
0.2551881621501897,-0.037572596759608945
0.2532386335995738,-0.03829336173657334
0.2514518165779839,-0.038951607277643845
0.3033253593761589,-0.019980367831719383
-0.4628971409955265,0.0297286164541849
-0.4618659114416612,0.02988923947373908
-0.05807636747973614,-0.10932421923273353
-0.05016666776404023,-0.11220916246255225
-0.048264173156905496,-0.11292911101864543
-0.015087413202187318,-0.12489391831339922
-0.013028250358205968,-0.12563580246046216
0.02274723311136372,-0.12211487462478904
0.023539495927244015,-0.12183671390574069
0.08536886063157627,-0.09936376339128
0.08721596876004771,-0.0986987625284795
0.18701958461635448,-0.06243478285081365
0.18852605867202873,-0.0619172107830456
0.180974420525263,-0.06459978144245113
0.1804244141254615,-0.06480223613767121
0.25044179181471327,-0.039329307183603154
0.24749308585304358,-0.04046449513464059
0.2493440973834607,-0.03974731823587115
0.3506859940210505,0.02196080976488262
0.35155502469731903,0.022946730177539253
0.3475322267030776,0.01805500968416919
0.3476480890253944,0.018141127546022276
0.30345640777695054,-0.01993297496864544
-0.4648502879131408,0.029575134960050875
-0.04738140393911493,-0.11327293089681265
-0.046289503765062454,-0.11371079898075914
-0.04481310761943522,-0.11430177376848719
-0.02086750948937625,-0.12282343404416084
-0.018897055243148275,-0.1235293716648449
-0.022814794074268483,-0.12213916467225264
-0.02097172566644137,-0.12278647975108291
-0.016245560588737794,-0.1244786861861871
-0.016856490589874443,-0.12426145876577559
-0.023758029998178158,-0.1218125233228892
-0.03457682164478147,-0.11799273949859174
-0.032602003321440344,-0.11871409753978762
-0.04436047374649565,-0.11448784944518411
-0.04253808095259924,-0.115201601252037
0.025324134272320352,-0.121229062446274
0.02471253750477552,-0.12143747266689753
0.06572693079799377,-0.10650561913876606
0.06768062454041233,-0.1057963030139508
0.0638829362941795,-0.10716963592488506
0.05977806571605312,-0.10866949650028171
0.06181729945971061,-0.10791808371411746
0.05801870499651464,-0.1093271521839018
0.05649055533937367,-0.10989044829370148
0.09116089497028283,-0.09727037769032294
0.09222695226801596,-0.09688923730751667
0.08916970251522555,-0.09798955638663973
0.08330679300545572,-0.10011247936557795
0.08126082203141366,-0.10085319555939128
0.07546393882058262,-0.10295887486719477
0.07744533125932411,-0.10223938180875887
0.14192155502356574,-0.07884385227668098
0.1399265722022457,-0.07955019042816852
0.14675471923137431,-0.07711398616944068
0.1457359373458935,-0.07747803640448758
0.14396849041210094,-0.07811050417589585
0.187049093802157,-0.06251589467495351
0.18491498009944574,-0.06327232923063209
0.1809849133337369,-0.06462862299848077
0.18248146207527835,-0.06411628742296825
0.18291080090892411,-0.06396945759977238
0.18038803606848453,-0.06483442992934563
0.24735783795577934,-0.040517712119421796
0.24687434102214928,-0.04078323460941194
