"Plane Section: Position[X] (m)","Plane Section: Position[Y] (m)"
3.5,0.0018568261934607563
3.27,0.0018793805248109039
3.0399999999999996,0.0019525333869033958
2.81,0.0020572709775139478
2.58,0.002226687408680247
2.3499999999999996,0.0024928344151661213
2.1200000000000006,0.002832872880973472
1.8900000000000003,0.0033018137435763236
1.6872572386180735,0.00399999999999988
1.6600000000000006,0.0040977415687791525
1.4300000000000002,0.005455431661144839
1.2000000000000004,0.006846518100012025
1.1760000000000002,0.007551438238539955
1.1520000000000006,0.008131276378018606
1.1280000000000001,0.00881370706504184
1.1040000000000003,0.00933649487824722
1.0800000000000005,0.009799847227514553
1.056000000000001,0.010115700143559787
1.0320000000000005,0.010483767087382998
1.0080000000000005,0.010979143341113036
0.9840000000000005,0.01148238048434436
0.9641983832272201,0.011999999999999986
0.9600000000000004,0.012112891422762884
0.9360000000000005,0.012811630436324058
0.9120000000000004,0.013528081378012636
0.8880000000000003,0.014570901138580125
0.8640000000000005,0.015948971994062464
0.8400000000000003,0.017349942615021922
0.8160000000000001,0.018503947800707313
0.7920000000000003,0.019708665730626473
0.787446564764505,0.01999999999999945
0.7680000000000002,0.021209058854914753
0.7440000000000007,0.022806344137023184
0.7200000000000008,0.024629894845139052
0.6960000000000008,0.02664022341033699
0.6835502730672207,0.027999999999998852
0.6720000000000007,0.029284690115837918
0.6480000000000008,0.03246855759325415
0.6254923861758391,0.03599999999999827
0.6240000000000008,0.03626366281298868
0.6000000000000008,0.04069010937672804
0.5853778953816309,0.0439999999999975
0.576000000000001,0.046225880973509534
0.5530715896913473,0.05199999999999711
0.5520000000000006,0.052312584892572137
0.5282525262744242,0.05999999999999598
0.5280000000000002,0.06009496386055843
0.5113234398639637,0.06799999999999538
0.5040000000000004,0.07371310299172332
0.5010168524238301,0.07599999999999477
0.49386185073444167,0.08399999999999404
0.4866162656001144,0.09199999999999299
0.4822312610266857,0.09999999999999246
0.4813513428380558,0.12166666666665962
0.48417463682431516,0.1433333333333259
0.48395781132802684,0.16499999999999293
0.47207935957986735,0.16499999999999282
0.45599999999999774,0.15024969941440525
0.47999999999999715,0.16895971046789204
0.4527612752902915,0.14333333333332593
-0.5852699203714229,0.04399999999999615
-0.5999999999999999,0.04066059368772261
-0.5528659870970973,0.05199999999999538
-0.5759999999999998,0.04620647724338457
-0.5283184074300156,0.059999999999994766
-0.5519999999999998,0.05225147441961868
-0.5119911917682579,0.0679999999999938
-0.5279999999999998,0.06012422963205182
-0.501636950281567,0.07599999999999316
-0.5040000000000001,0.07423189893774595
-0.6251863692525073,0.035999999999996965
-0.648,0.03244482008323714
-0.6240000000000001,0.036209001940512846
-0.49231555181527675,0.08399999999999233
-0.6836031064311949,0.02799999999999781
-0.696,0.026630669566541705
-0.6719999999999999,0.02930239694356224
-0.4846060910678926,0.09199999999999164
-0.7200000000000001,0.024537544942633112
-0.481129625346586,0.09999999999999096
-0.744,0.0226588960787168
-0.4804282499015992,0.12166666666665751
-0.471814682987579,0.14333333333332465
-0.4560000000000039,0.13417707398485917
-0.785858584401094,0.019999999999998595
-0.7919999999999998,0.01962305054251369
-0.768,0.021073781605117067
-0.48250703485872437,0.14333333333332482
-0.4748803047287976,0.16499999999999138
-0.8159999999999998,0.018318849135682536
-0.4822624037342683,0.16499999999999143
-0.4800000000000082,0.16765047159783603
-0.8400000000000002,0.017126676880728053
-0.8640000000000001,0.015943290247703266
-0.8880000000000002,0.014754497002152683
-0.9120000000000001,0.013683808259417521
-0.9360000000000002,0.012822396615403953
-0.9626254980482201,0.011999999999999589
-0.9840000000000002,0.01139640368844939
-0.9600000000000002,0.012076735424561575
-1.008,0.010826109569295292
-1.032,0.01031461644584259
-1.0560000000000003,0.00989532359548068
-1.0800000000000003,0.009551596884385047
-1.104,0.009143542403217592
-1.1280000000000001,0.008806802520810012
-1.1520000000000001,0.00834970050908554
-1.1760000000000002,0.007834326282612318
-1.2000000000000002,0.007017348676709931
-1.4300000000000002,0.005491680055103847
-1.6880519214724412,0.00400000000000008
-1.8900000000000001,0.00331790944430265
-1.6600000000000001,0.004098571310374438
-2.12,0.0028335752610374517
-2.35,0.0024807131723177103
-2.58,0.002238516482438363
-2.81,0.002070736271231219
-3.0400000000000005,0.0019476238275881385
-3.27,0.0018787541331591493
-3.4999999999999996,0.001866614116855493
-0.3016855347863362,-0.0727406939180313
-0.3000186837897094,-0.07334745273039711
-0.3475860582225446,-0.03407852441977587
-0.3476949545604011,-0.034067947469136724
-0.3555059075989549,-0.025084079205136806
-0.35448765856064535,-0.02626483580601132
-0.3577961681530955,-0.02235801600243216
-0.2944384538952353,-0.07538014821073563
-0.29622045925972,-0.07473123026650123
-0.29233186646457043,-0.07614728501297913
-0.29032576292541584,-0.07687784896417314
-0.2884263006281005,-0.07756957387126508
-0.28647329929728493,-0.07828077974688152
-0.2845321764409406,-0.078987656074917
-0.282567286612223,-0.07970318930831877
-0.2806142818496965,-0.08041439893498563
-0.3033866544756757,-0.07211984017518033
-0.29811969705922126,-0.07403949632273528
-0.351626708891252,-0.030171578537018538
-0.35160053904830413,-0.030202986500560327
-0.3457421559773667,-0.035963616950432695
-0.34568740908668016,-0.036031976407772115
-0.35941138754744373,-0.020612058433364805
-0.2787427942207551,-0.08109591835368443
-0.3034224385429735,-0.07210685648468154
-0.3439547376379834,-0.03798539981338617
-0.34230660269553664,-0.03993880866129468
-0.3437894093761171,-0.03816114434982629
-0.3614180428606126,-0.01845114223545636
-0.261084280157964,-0.08752662133551802
-0.25913127706483985,-0.08823783554639589
-0.2572627167532774,-0.08891830810519889
-0.27670826892814016,-0.08183680886153788
-0.2747552651628007,-0.0825480212264735
-0.27296255481120013,-0.08320091988682574
-0.2708492701592493,-0.08397048035596068
-0.2688453339529876,-0.08470026526290886
-0.2649902823045446,-0.0861041818208241
-0.2630518506484374,-0.08681010642948939
-0.30352332975080853,-0.07207293093526786
-0.3418366729427125,-0.04041771634128815
-0.34041930923689023,-0.041892258693771424
-0.3385358382088357,-0.043845708067998854
-0.3398838962358821,-0.042440420784442004
-0.3633169111992153,-0.016393822430831102
-0.3650328939708668,-0.014544269677989195
-0.25522527887185487,-0.08966028591768763
-0.25327227817623393,-0.09037150671212209
-0.2514830622107963,-0.09102315793621443
-0.26694327678858004,-0.08539294396934378
-0.3035807659726366,-0.0720562109538371
-0.33793112046138246,-0.04446853927235281
-0.3366563082678804,-0.04579915676355029
-0.3347739233177215,-0.0477526059507466
-0.3359783450844407,-0.04649896640548995
-0.36722241913049125,-0.012084297566665608
-0.36853173373034204,-0.010637417098389045
-0.23578273619156054,-0.09674092070400836
-0.23764835844341153,-0.0960615087630172
-0.24936628550639006,-0.09179397224989876
-0.24736491918133233,-0.09252284149852437
-0.239601349215875,-0.09535026071954589
-0.30367880196485725,-0.07202627842200857
-0.3328649475186514,-0.049706059717055315
-0.3340255679371105,-0.0485191129090562
-0.37108996262706306,-0.0067307264977599195
-0.23178940135176085,-0.09819529470338502
-0.23374237579609153,-0.09748400182276126
-0.23000372266331987,-0.09884570065677589
-0.22788341944917082,-0.09961778980818575
-0.22588461246378794,-0.10034570278266557
-0.2454603087168416,-0.09321648139516772
-0.24350732191038887,-0.09392774032933279
-0.2415715917516564,-0.09463271982550517
-0.3037547445986397,-0.07200722496349804
-0.332072785636531,-0.050509334509759765
-0.3309389268676734,-0.05165951641859332
-0.3711277381586924,-0.00667781368503044
-0.37372701517167434,-0.002824022323207542
-0.22397746135998464,-0.10104035030473564
-0.2220244937782287,-0.10175166203002324
-0.2200914425721012,-0.1024556133007546
-0.2172438312957612,-0.10349271046588078
-0.21811850405685193,-0.10317413566439229
-0.30384323210806696,-0.07198742367714969
-0.330120000899443,-0.052485407353949666
-0.3290008293557591,-0.053612975199838625
-0.3270378454892199,-0.05556643826666602
-0.32816721358780376,-0.054446529763853294
-0.37503307937941277,-0.0014002016505381388
-0.21430302561529022,-0.10456422994629547
-0.2161656035359863,-0.10388563153929412
-0.3039969203440732,-0.07194813538543177
-0.3262144216671314,-0.056380887517258366
-0.3250521693475493,-0.05751990524124492
-0.3230254047480718,-0.05947337929150487
-0.3242616256572398,-0.05829149918159196
-0.37725136870438636,0.0010828346500208511
-0.21030688246533,-0.10602006559471952
-0.20852503068768644,-0.10666990045539547
-0.20640132804603772,-0.10744373457115707
-0.20440523166611058,-0.10817109472327353
-0.2122597690500822,-0.10530853145117382
-0.30431149418676806,-0.07185010350000687
-0.3206375665306442,-0.06142691552085946
-0.32230882256288645,-0.06016097147738924
-0.3789384760790129,0.003555244897970466
-0.38018888356353875,0.004989590566024487
-0.20054323207604055,-0.10957988515667472
-0.20249585097219916,-0.10886761593868016
-0.20030438588544416,-0.10966694895231516
-0.3046741823553531,-0.07174364449161699
-0.32035595325435606,-0.06164593841343008
-0.3184030429270168,-0.0628927093913004
-0.3178116397336261,-0.06338052719176246
-0.3155056449111059,-0.06533404932718281
-0.3164501912942161,-0.06448031920570874
-0.38284390622649,0.008316459829518258
-0.3833485601889882,0.00889638473964944
-0.18882729890794678,-0.11385289691689404
-0.1907801193848322,-0.11314118124075068
-0.1870491538438569,-0.1145017035587106
-0.18585363235890467,-0.11493763272347947
-0.1986133360953899,-0.11028409427514133
-0.1946856796895985,-0.11171752842584176
-0.19282618304551918,-0.11239536846275365
-0.30530786319726744,-0.07153314625162592
-0.3056533955286882,-0.07133944137357706
-0.3055923424032449,-0.07141584774919726
-0.31449736792067523,-0.06623203039540165
-0.3130132218151094,-0.06728760356669522
-0.38649961354208107,0.012803177428289677
-0.18492214406382534,-0.1152776631291212
-0.18292884125631007,-0.11600468609793044
-0.19663829681039693,-0.11100525433269963
-0.30577659734644,-0.07126804334577547
-0.30668564258692727,-0.07073118522598605
-0.30623242907217596,-0.0711950213187451
-0.31254448379987626,-0.06763098260671323
-0.3906218130061872,0.020616387412166304
-0.17713679743792365,-0.1181168581248617
-0.17906389206442364,-0.11741338525697631
-0.1732059523274646,-0.11954996485933805
-0.17515891173375103,-0.1188386306841693
-0.17134917895555574,-0.12022601553253448
-0.18101673158859935,-0.11670172188482547
-0.31059154737065053,-0.0687261800923247
-0.309855745169631,-0.06924127233251053
-0.3086386549524,-0.07007694904406797
-0.3906542789732893,0.02067007882937439
-0.39508732156310344,0.028429656515972825
-0.3984647423020785,0.03249768871935592
-0.40157421983917296,0.036243273715494684
-0.40627541654077026,0.04310054612632721
-0.40979221930822746,0.051869689137101306
-0.4069917584059195,0.04405670676471364
-0.16929985717789103,-0.12097214898724704
-0.167245262601483,-0.1217203682953208
-0.16144995499276205,-0.12383141138314765
-0.16344103676138083,-0.12310631023838912
-0.41220220475914904,0.05968260426721664
-0.44976981324515647,0.13000157468245588
-0.453133024424787,0.14410049325752225
-0.46323302357218576,0.16125389359322337
-0.4687540075450343,0.16742783474546585
-0.45357819563945595,0.1456272307409307
-0.1517230936373845,-0.12737380264783404
-0.14986977085433972,-0.12805001156242263
-0.15953503414147138,-0.12452874845329945
-0.1575819847411884,-0.12523983550444015
-0.15565697934987519,-0.12594059366110358
-0.1654817430989302,-0.1223629126191853
-0.41408444980693937,0.06323252099515557
-0.4169174126003281,0.0674959163707758
-0.43100415171659245,0.0987483426570276
-0.43751435562820096,0.1073338884154369
-0.44298732431131727,0.11437540646456759
-0.1468499050430549,-0.1291537673520813
-0.14781827517442314,-0.1287994925647239
-0.15367591475110948,-0.12666208872047913
-0.42189389024756885,0.08100003614162037
-0.4231680522887222,0.08312199300095008
-0.14576812654374183,-0.12955213726062878
-0.14196397406256533,-0.13094606385304758
-0.1440058900138294,-0.13019892222243584
-0.13997654616698213,-0.1316731650046803
-0.13884809358743866,-0.13208624701687272
-0.13806090486747066,-0.13237655726979203
-0.1361110829236693,-0.13309650693543013
-0.134191511230733,-0.13380371068398617
-0.13026491008433666,-0.13526539850799646
-0.1284160931586167,-0.13594461204569475
-0.12636221060468691,-0.1366969071655454
-0.1331332275812006,-0.13419514952055694
-0.13221460920680828,-0.13454511157425214
-0.09829891168757751,-0.1468528506101564
-0.09899825633798347,-0.14659373848424262
-0.09720853371857237,-0.14724992839276083
-0.0970161650315862,-0.14731938745954004
-0.10692374941569555,-0.1437329820767303
-0.10877189569015122,-0.14306134867318063
-0.10104671442937073,-0.14585043307763132
-0.1127120349319473,-0.14162833689217477
-0.11356068731044744,-0.1413227888452058
-0.11072478260151639,-0.1423498154265186
-0.12431264497853824,-0.13744336180580732
-0.12049956239269421,-0.13882055726769954
-0.11849952066491556,-0.13954296549563305
-0.09531759847688304,-0.147938541327135
-0.10486243101988536,-0.14447428007742666
-0.10196976486338591,-0.1455160533886946
-0.10281195010005835,-0.14521042239314005
-0.11659022854275203,-0.14023384790530963
-0.11463454984436133,-0.1409377148883544
-0.12254678511619481,-0.13808092334465946
-0.08642935951518527,-0.15117532922864785
-0.08543689327811238,-0.15153636588687908
-0.08461811335274559,-0.15183492216831895
-0.09509388766470857,-0.1480206635262486
-0.09314102781359124,-0.14873227108051287
-0.09122466197153528,-0.14943125386713144
-0.08923494586999443,-0.15015449147212134
-0.08728179617285176,-0.15086530310748247
-0.08337590849245974,-0.15228805694699513
-0.08133159331560935,-0.15303332342034537
-0.07751801758511975,-0.15442477063578305
-0.07553801451960881,-0.1551480803981906
-0.07956764526167687,-0.15367761402692887
-0.07361871834420143,-0.15586561636889376
-0.07346141842109219,-0.1559255497475484
0.29613819316014967,-0.0748560424180776
0.2943553501572992,-0.0755048741401575
-0.07167544036796031,-0.15660353580800507
-0.06976411307108325,-0.15730780420591273
-0.06815806786404482,-0.15789846602195484
-0.06583715601592334,-0.15879408921314386
-0.0656373415260628,-0.15887885731409812
-0.004065821655504525,-0.18112473695005774
-0.003406730386968879,-0.18136429305859048
-0.007209858784070039,-0.1799828410538948
-0.0053319964857532825,-0.18066486510509075
-0.0016528576972709547,-0.18200328057475612
-0.0015384471274429985,-0.18204511896625641
-0.008764946283606048,-0.17941895983277936
0.020860989313888263,-0.1749824645319436
0.021394153917997174,-0.17478961721337172
0.0167514381509997,-0.17647305026443172
0.018789156123055116,-0.17573314569050016
0.29804124726397035,-0.07416299381744615
0.292977765774537,-0.07600655740502522
-0.06777449446014677,-0.15803985978412702
-0.06476804838875722,-0.15928906915420663
-0.022136720602385317,-0.1745699772780548
-0.020990377858781526,-0.17498475453246737
-0.03354016742014994,-0.17046348271828654
-0.03258250948526325,-0.17080760990227667
0.012929011403027716,-0.17786309878468318
0.014985835166012582,-0.17711501494279513
0.00902585957304693,-0.17927956071871043
0.010405736593532116,-0.17877871097900244
0.010956260734604505,-0.17857925672755323
0.0070844851540462755,-0.17998401384680865
0.005206053643646568,-0.18066657096379626
-6.427520655539408E-5,-0.1825864643349776
-0.011976626514992494,-0.17825759872489377
-0.01108478503108561,-0.17858047357302453
-0.009152934863488239,-0.17927874793651194
0.02465327318192313,-0.17361354318874447
0.025677105593089368,-0.17324391586206128
0.022698309205827626,-0.17431936738906972
0.29994183921604756,-0.073468683082178
0.2922488648956919,-0.07627266391457199
0.2902442172673583,-0.07700710044103962
0.28639367585539255,-0.07841522149551063
0.2883460157131046,-0.0777022123329123
0.28445321721209377,-0.07912392231066483
0.283230651887886,-0.07957081152931245
0.2790542065530235,-0.08111784220982468
0.2805399649494069,-0.08056342715623538
-0.06406180732373418,-0.1596466140050664
-0.01891810850819895,-0.17573424081476996
-0.022827997676488798,-0.17432247566007544
-0.016880316079406696,-0.1764739412517603
-0.028978948908870265,-0.17209677326145711
-0.02869119960101971,-0.17220034605578094
-0.026780560442906276,-0.1728893235988628
-0.024781954813367812,-0.17361388125897748
-0.03064820819787035,-0.171500130981746
-0.0345626859265802,-0.1701009654655175
0.003280319460673862,-0.18136653697243155
0.001525763743383729,-0.1820081606483632
-0.01511550543544026,-0.17711811796998334
-0.01305879004074795,-0.1778667219711374
0.026653385095341865,-0.17289312895002207
0.028564378478008082,-0.17220513124776377
0.0853264809544006,-0.1515862483595145
0.08717122315565931,-0.1509147442459785
0.2063337354273051,-0.10761126457495816
0.20433667455926977,-0.10833597419302662
0.20220131957807833,-0.10911663364348892
0.20242767713479634,-0.10903355047714941
0.3016205537003549,-0.07285651943087762
0.28248980341164803,-0.07984351317386598
0.2805551095722313,-0.08060505896934726
0.27867836719727584,-0.08127213368797928
0.27867390582022494,-0.08125986958489054
0.2786744440331082,-0.0812613491052737
-0.06253220427607861,-0.16024375413008665
-0.03662381479323019,-0.16937126822414036
-0.03719646191009037,-0.16917360747517338
-0.04389447990086505,-0.1668904977649982
-0.04253418425133193,-0.1673379348659302
-0.04044997943967845,-0.1680512197160931
-0.03839951443012184,-0.16875773159403773
0.03021179257951661,-0.17161280462485545
0.09111476746558914,-0.14948256118057712
0.09260082650133222,-0.14894496294823323
0.08912416898759666,-0.15020337226798572
0.08326512853411241,-0.1523369302814577
0.08122043201471159,-0.1530811495959586
0.07542541101380212,-0.15519194776780298
0.07740592170918759,-0.15447003094813838
0.20714477407570867,-0.10731832735919097
0.2084685761036231,-0.10686804753801103
0.20947393887234728,-0.10653345739595793
0.20048362110015294,-0.10976936006470628
0.19856228069178647,-0.1104970897141539
0.3032976373080217,-0.07223499014219399
0.28340802827419553,-0.07957564471716146
0.2835789823565108,-0.07949672440893038
0.283294813927679,-0.07959711968555908
0.2825102267158998,-0.07989965581905198
0.29617900753945375,-0.07496514673282964
0.2943936199381369,-0.07560944612635413
-0.06166163030764123,-0.1605607869304591
-0.05994567684014246,-0.16111554984926788
-0.056099879320331406,-0.16242633109335053
-0.05811228553957937,-0.16171286679943436
-0.05412336497141117,-0.1631511334107267
-0.052876858349532346,-0.16361942753221914
-0.0620163540626046,-0.16045048896037717
-0.04045200300718109,-0.16805054823361737
-0.044398952470652155,-0.16674055029231472
0.03443438493944073,-0.17010171824343265
0.034705757331792014,-0.17000575490400166
0.03245431446368638,-0.1708086406436966
0.030520473861350754,-0.17150241722956155
0.07516443281639922,-0.15528789102699228
0.10270600164801867,-0.14527257399004975
0.10475510946268951,-0.14453266670643222
0.09303293353816591,-0.14878852573427864
0.07945588366434506,-0.1537237921628244
0.10681494313657554,-0.1437872957622694
0.10866440801435276,-0.14311928811510877
0.12245645862482189,-0.1381860694811395
0.1204112376574224,-0.13893120093043845
0.11840990638761613,-0.13965005901978084
0.16337462289702803,-0.12327710548517175
0.16138155832118506,-0.12399675637667261
0.16541731249446162,-0.12253915914145572
0.1887830549572747,-0.11408462330495209
0.190734281003193,-0.11336852372091895
0.18700438241691797,-0.11473198146950225
0.19794808423702207,-0.11072627778755936
0.1946501734597561,-0.1119732714454219
0.19278332419887276,-0.1126309004885492
0.1762031949399822,-0.11863652983760979
0.17509938963517005,-0.11902836847479521
0.17314198225488692,-0.11972747587881596
0.17128322648047392,-0.12039807725395515
0.16923555127529372,-0.12114873728278341
