"Plane Section: Position[X] (m)","Plane Section: Position[Y] (m)"
3.5,0.0016943288487128335
3.2699999999999996,0.0017156782510946143
3.0399999999999996,0.0017830126542350928
2.8100000000000005,0.0018788718407732035
2.58,0.00203516767279395
2.3499999999999996,0.0022835888405360314
2.1200000000000006,0.002602323429553524
1.8900000000000003,0.0030268312054398203
1.6600000000000006,0.003721091203579197
1.6095498541282247,0.003999999999999915
1.4300000000000002,0.004975997254110541
1.2000000000000004,0.006273311460496935
1.1760000000000002,0.0069011973575312975
1.1520000000000006,0.007388652422264938
1.1280000000000001,0.008009708033035624
1.104,0.008499427767842084
1.0800000000000005,0.008944916228384961
1.056000000000001,0.009250908832919725
1.0320000000000005,0.009595035273144849
1.0080000000000005,0.010044317317969268
0.9840000000000004,0.01050540369982238
0.9600000000000003,0.011074225268637331
0.9360000000000005,0.011741147989981451
0.9274034496989478,0.01199999999999993
0.9120000000000004,0.012462297856399737
0.8880000000000003,0.013278823845414393
0.8640000000000007,0.014213287660579773
0.8400000000000003,0.015253107511163324
0.8160000000000002,0.016394394721149792
0.7920000000000004,0.01763186757408301
0.7680000000000002,0.01891802707956338
0.7510243824360192,0.019999999999999518
0.7440000000000004,0.020465125702209153
0.7200000000000004,0.022144771668701605
0.6960000000000006,0.023966103875365626
0.6720000000000006,0.026240170685474004
0.6576995439951501,0.027999999999998772
0.6480000000000008,0.029228313829671008
0.6240000000000008,0.03255949425967819
0.6033937657446791,0.03599999999999813
0.6000000000000008,0.03663047609269317
0.576000000000001,0.0413451855345794
0.5649074532704406,0.043999999999997375
0.5520000000000007,0.04705782338066342
0.5338461057182906,0.05199999999999683
0.5280000000000005,0.05381248797210052
0.5118287067806235,0.05999999999999601
0.5040000000000002,0.0641371871197493
0.496790179684843,0.06799999999999523
0.48797397320672803,0.07599999999999446
0.481953582914619,0.08399999999999387
0.48,0.08646262274749975
0.47553161566771696,0.09199999999999287
0.47335959001112415,0.09999999999999239
0.4725472555452167,0.1216666666666594
0.4704655243498774,0.14333333333332593
0.4559999999999975,0.15542541881399596
0.4442737726926017,0.14333333333332565
-0.5648766241552573,0.043999999999995903
-0.5759999999999997,0.0413522866920422
-0.5339476540834711,0.05199999999999523
-0.5519999999999998,0.047035459741059216
-0.5122696027478105,0.059999999999994565
-0.5279999999999999,0.053878852762093206
-0.4975508865432817,0.06799999999999366
-0.5040000000000001,0.06449374732064894
-0.6033381270722162,0.035999999999996916
-0.6240000000000001,0.03252388149753797
-0.6,0.036625808522015246
-0.48731817876143146,0.07599999999999316
-0.4789786722229869,0.08399999999999216
-0.48000000000000015,0.0830950109942111
-0.657710458961804,0.027999999999997853
-0.6719999999999999,0.026277293167124585
-0.648,0.029204533163142907
-0.4736072790216778,0.09199999999999152
-0.696,0.023991868571169864
-0.4723873603993349,0.0999999999999909
-0.72,0.022082450728818058
-0.47128983231426425,0.12166666666665749
-0.7493852538120336,0.01999999999999858
-0.768,0.018839531612690873
-0.744,0.020351765269375648
-0.46942225617984357,0.14333333333332463
-0.4560000000000065,0.15609637893129338
-0.4446411916278407,0.1433333333333242
-0.7919999999999999,0.017574321243332733
-0.8160000000000001,0.016343706093537677
-0.8400000000000002,0.015225770180769083
-0.8640000000000002,0.0142061931381263
-0.8880000000000003,0.013286436018914645
-0.9254027978105877,0.011999999999999272
-0.9360000000000002,0.01165411527115258
-0.9120000000000001,0.01243919809348306
-0.9600000000000004,0.010994633172224433
-0.9840000000000002,0.010418764550390664
-1.008,0.009917177483407874
-1.032,0.0094524336946341
-1.056,0.009068340962842942
-1.0800000000000003,0.008753781334092383
-1.104,0.008385956090380228
-1.1280000000000001,0.008052383666477168
-1.1520000000000001,0.007591037493885741
-1.1760000000000002,0.0071653135175259106
-1.2000000000000002,0.006438502689877725
-1.6105108532315735,0.004000000000000104
-1.6600000000000001,0.00372068295399759
-1.4300000000000002,0.005001764197196933
-1.89,0.0030421259330509444
-2.12,0.0026007493273276726
-2.35,0.0022718732019655456
-2.58,0.0020463802644756467
-2.81,0.00189152519456291
-3.04,0.0017780003880913738
-3.27,0.0017145564298345405
-3.5,0.001703424090184996
-0.3016810886516465,-0.06595604485468332
-0.30001424227303414,-0.06656281118869037
-0.3586881576376324,-0.015573358284756157
-0.3560518520204069,-0.01948005562974304
-0.294434002252551,-0.0685954825972025
-0.29621600973342865,-0.06794657040249782
-0.29232741026223175,-0.06936260688860144
-0.2903213011228701,-0.07009315545931125
-0.28842183928771137,-0.07078488163429306
-0.28646883936375345,-0.07149609137305224
-0.28452771591370835,-0.07220296607069457
-0.28256282424081663,-0.07291849423988347
-0.2806098167476817,-0.07362969636819613
-0.303382296489748,-0.06533526008774744
-0.2981152494516394,-0.06725484151184219
-0.3555018940941439,-0.020130865559987318
-0.35285608624538933,-0.023386847895526013
-0.3488766786435124,-0.027293773117889924
-0.3515964184614088,-0.024695292661095627
-0.34693386994254255,-0.029247227772615778
-0.3476908094288895,-0.028473465708921758
-0.35940721743717896,-0.014668847812581313
-0.2787383278446148,-0.07431121228804989
-0.30338840643267295,-0.06533304137485829
-0.3457379980638509,-0.030322185766582705
-0.3448687658586043,-0.031200703176589482
-0.34305902346725253,-0.033154135254619445
-0.34378521832376907,-0.03235730230510388
-0.3617186178863792,-0.011666594065526883
-0.2610797948863435,-0.08074186338314678
-0.259126790113133,-0.08145307298046914
-0.2572582287415593,-0.0821335426285249
-0.27670379965926234,-0.07505209485229666
-0.27475079322823337,-0.07576329989716839
-0.27295807968907443,-0.07641618980480472
-0.2708447910182008,-0.07718573923771768
-0.26884085370363786,-0.07791552110140663
-0.2649857969170931,-0.0793194235502738
-0.26304736654356425,-0.08002535168106087
-0.30351664116885635,-0.06528911102331023
-0.34183245060809775,-0.0344632903104441
-0.3412188883380186,-0.03510757248923616
-0.3394118432498285,-0.03706100410963025
-0.3398796832835752,-0.03657158373112613
-0.36331266284843994,-0.00992629634359341
-0.36529653769897774,-0.007759736961578934
-0.2552207893185436,-0.08287551620787273
-0.2532677849859496,-0.08358672701513765
-0.2514785654367443,-0.08423836839868845
-0.26693879351835864,-0.07860819151257227
-0.3035864663392362,-0.06526781595171653
-0.337926918815857,-0.038696715059015216
-0.33761248558274154,-0.03901443442573824
-0.3357442439256063,-0.04096787642904876
-0.3359741407610244,-0.040741764419604753
-0.36721818567779174,-0.005640044575027239
-0.3688524147040805,-0.003852883597523743
-0.23577822015330518,-0.0899560782683482
-0.23764384291773763,-0.08927666773478171
-0.24936178533519238,-0.08500917338344616
-0.24736041677045612,-0.08573803648215952
-0.23959683391357972,-0.08856542030443912
-0.30366124412537837,-0.06524652794739909
-0.33359548420547097,-0.042921366026449935
-0.3340213197605471,-0.04253369351289979
-0.3711236807522126,-0.001190206114221683
-0.37221633665485476,5.393719847426616E-5
-0.2317848760524568,-0.09141042683764805
-0.2337378535281071,-0.09069914228048111
-0.22999920241286054,-0.09206084665618722
-0.22787890005951905,-0.09283293817106342
-0.22588008718155425,-0.09356083496448808
-0.24545580177292375,-0.08643166393129192
-0.24350280914897912,-0.0871429068908248
-0.24156707729711635,-0.08784788173800978
-0.3037239646315503,-0.06523253110743386
-0.3320684686404337,-0.04414809844041232
-0.3312581896443525,-0.04487488761162028
-0.37464180194672325,0.003960598771237982
-0.2239729264964326,-0.09425545617691708
-0.22201995923966866,-0.09496676879541997
-0.22008691334039698,-0.09567073463895133
-0.2166439371661628,-0.09692465926005292
-0.21811397225803145,-0.09638924995356297
-0.3038046329868156,-0.06521591582682039
-0.33011564304854346,-0.04591296592236162
-0.32919088687302545,-0.046828363388632284
-0.32720352041670603,-0.04878182560324959
-0.3281628456092039,-0.04784376359961934
-0.3750289629838013,0.0045141211418622575
-0.21429848065604723,-0.09777930810101386
-0.21616103095751735,-0.09710063384865848
-0.3039099285654514,-0.06519599429684839
-0.3262100440463568,-0.04975025743137732
-0.32519397291726476,-0.050735291581215286
-0.3231493714052228,-0.05268876350661675
-0.32425723937014195,-0.05163840115148738
-0.37730547408260373,0.007867300759361633
-0.21030231085246176,-0.0992350705619284
-0.20852045788116885,-0.09988490215143131
-0.20639677792340672,-0.10065879856097085
-0.2044006328719033,-0.10138602506276428
-0.2122552258676331,-0.09852361448656187
-0.30401530314406733,-0.06518452242307696
-0.3209811284553761,-0.054642256409641876
-0.32230442860071584,-0.05349063174206698
-0.37893424592731806,0.010214252333751193
-0.380228038922648,0.011774046672511891
-0.20053859786514083,-0.1027947182576271
-0.20249121405575998,-0.10208244160179983
-0.19947479932125906,-0.10318249433259657
-0.3044707642582517,-0.06504279899089663
-0.3203515929983314,-0.05519649763400074
-0.31839867709640435,-0.05642908061835004
-0.3181622528957075,-0.05659585970224874
-0.31556648614857147,-0.058549425141095415
-0.31644577854576084,-0.057763931524271686
-0.3828393766910555,0.01681132626052104
-0.18446826452223875,-0.10865553113985137
-0.1849172901941511,-0.10849189310481966
-0.18882258059903248,-0.10706749912768394
-0.19077544005829297,-0.10635589049424723
-0.18704442046159436,-0.1077162643865393
-0.1986086151083472,-0.10349868909625519
-0.19468102760044606,-0.10493231246426132
-0.19282154058852902,-0.10561017895609212
-0.3050757352186818,-0.06484829181121479
-0.30569817933372334,-0.06455820359450817
-0.3056283346491365,-0.06462407273231428
-0.31449294607458256,-0.05948825269438341
-0.31309039701416075,-0.0605029702748406
-0.38513955330088745,0.01958738009698058
-0.1829239279719213,-0.1092187529270975
-0.19663358656665259,-0.10421987866861997
-0.3057869266693624,-0.06449252671885133
-0.30668121028608675,-0.06399315343944606
-0.3062458190331098,-0.0644103816163128
-0.3125400626010495,-0.06091196760570434
-0.3906501258505236,0.027131386781731045
-0.4060646709217747,0.05865343091899826
-0.40368469287255204,0.05084052700761011
-0.17713187173834266,-0.11133089088193834
-0.17905912402024285,-0.11062785092830629
-0.1732013530305423,-0.11276489393853423
-0.17515418103898056,-0.11205319894029066
-0.17134460185241374,-0.11344100555563275
-0.1810119040663263,-0.10991602422411528
-0.31058712404525035,-0.06201102940012337
-0.30994041465120137,-0.06245662974467263
-0.3086342234674796,-0.06333393247441095
-0.3908397414217153,0.027400847331771224
-0.3956399999922466,0.035214161880021085
-0.3984605246628593,0.039516381997282135
-0.40069766292832154,0.04302752010077679
-0.4062697171764947,0.05901126300451595
-0.44731519192634217,0.15241043103743068
-0.45312727106674,0.16184204925261036
-0.16929527355944884,-0.11418712111806692
-0.16724064206389255,-0.11493523904521219
-0.16144532027819525,-0.11704624320686943
-0.16343641022152522,-0.11632116450994548
-0.41035903361389725,0.06646665963443515
-0.44189557380020517,0.13678451129311187
-0.4687518556416693,0.16429187664546274
-0.1517183552693081,-0.12058834983769567
-0.1498649364402574,-0.12126429501634312
-0.15953043088680563,-0.1177436666667232
-0.15757744875286117,-0.11845493843208849
-0.15565246152748263,-0.1191557464711013
-0.16547711159378484,-0.11557775325420125
-0.41408002152941087,0.0719529990747208
-0.4161678860044417,0.07428014530574842
-0.43045935706927524,0.10553257051777308
-0.4375096299676982,0.1184675981639309
-0.43910007632433135,0.12115903677019066
-0.47724631609146007,0.15241550930131895
-0.14576202433256355,-0.12276293936774633
-0.14781324989964967,-0.12201325192667054
-0.15367131216645796,-0.11987700877141497
-0.421889561364304,0.08940077967224265
-0.42219520799617705,0.08990616815613639
-0.47484626786412254,0.13679010187229826
-0.14563196270571854,-0.12281058342916384
-0.1419587842808079,-0.1241593715764848
-0.14400059476930685,-0.12341194031743949
-0.13997129906806813,-0.12488631535701442
-0.47417051699740775,0.12116498699616365
-0.13805462855934614,-0.12558688142560126
-0.13748062906939612,-0.12579749040076615
-0.4731945411760311,0.10553982118236643
-0.1361046967470269,-0.1263065294583076
-0.13418475821862988,-0.12701272592354285
-0.13130214859716244,-0.12807520738132788
-0.13220311057960196,-0.1277410953737094
-0.13025802058592606,-0.1284740391740197
-0.12841021884084453,-0.12915604046722262
-0.47783477259193746,0.08991560824232027
-0.12635584010789516,-0.1299069730961171
-0.10691946541348439,-0.13694877728096674
-0.10876695904425723,-0.13627535170958754
-0.48439155060465433,0.07768156221821462
-0.11072070071853082,-0.1355661656629283
-0.11180167009791725,-0.13517654818663852
-0.12430796846024354,-0.13065807944861246
-0.12049731110045465,-0.13204193456868263
-0.11849753776427258,-0.1327650797659338
-0.09583486891542983,-0.140963309842636
-0.09684936945187012,-0.14059386690529005
-0.09701197910467034,-0.14053545183066823
-0.0989950629350507,-0.13981252832679839
-0.10485985802125478,-0.13769477367939592
-0.10280870676571412,-0.13842907516099365
-0.10104284005818262,-0.13906735298119144
-0.4922054194137925,0.06961450784569659
-0.4860630795162512,0.07429200407306998
-0.11463277973221095,-0.13416041339287527
-0.11658751483536592,-0.13345395532933613
-0.11271013195176836,-0.13485067047121393
-0.12254400793299924,-0.13130085657567114
-0.09509061052099807,-0.14123922344987297
-0.09313727142643355,-0.1419495149915247
-0.0912213072714567,-0.14264960082970438
-0.08923144694381492,-0.1433724423764556
-0.08727749194465885,-0.1440810426270937
-0.08543251814767246,-0.14475191070149224
-0.08337206326994419,-0.14550505691144971
-0.08132741804050077,-0.14624941705686026
-0.07751373120203095,-0.1476405591854259
-0.07553304601919922,-0.14836199585064896
-0.07956340079654019,-0.14689351767914727
-0.07360978911468133,-0.1490686556796999
-0.07228540954816133,-0.1495668839687089
-0.065815755072686,-0.1519628815148384
-0.06572965253368544,-0.1519958642663039
0.2961423366783965,-0.06806905620866605
0.2943598184328939,-0.06871875481458131
-0.07166570971688713,-0.14980437460418478
-0.06975869229911547,-0.15052047810648594
-0.06776778880017467,-0.1512490053991804
-0.06398668156713551,-0.15266787792434972
-0.0036838183187167138,-0.17447672455598295
-0.0034020801704838753,-0.17457912459422553
-0.007205305370306226,-0.17319790723363182
-0.005327387018421798,-0.17387978914791263
-0.002313632521861875,-0.1749756946869817
-0.00831741777468689,-0.17279482276149788
0.016756264383440685,-0.16968791534157782
0.018794199102724438,-0.16894860657997218
0.2980454324492893,-0.0673761708053508
0.2935027513072341,-0.06903103992991609
-0.06329651333571247,-0.1529443523036516
0.012933834172884365,-0.17107795441963725
0.014990602167267865,-0.17032971720829365
0.009030741309850017,-0.17249458206856147
0.009637708243828105,-0.1722743767051807
0.01096127727745056,-0.17179464644956008
0.007089304206560506,-0.17319886736460013
0.005210812750726644,-0.17388126048838826
-0.0016482163363746916,-0.17521831470060867
-5.9550875923606106E-5,-0.1758017401068778
-0.011259110276173448,-0.17173179026588756
-0.011080554456400427,-0.17179641655981054
-0.009148643835492878,-0.17249453058463374
0.024849369863277147,-0.16676125790258609
0.024658715183378525,-0.1668301008652504
0.022703738573030336,-0.16753589037226474
0.020558498539892396,-0.16830985256105208
0.020866377871169618,-0.16819887536844924
0.2766401292714804,-0.0752044163270947
0.27604071786076934,-0.07542958428924512
0.29994614249059803,-0.06668220459803634
0.2922536343824356,-0.06948737214468947
0.29024766563051235,-0.07021817803374744
0.2863972588683212,-0.07162666883266747
0.2883490946628544,-0.07091227411718103
0.28445650967299124,-0.07233457091808633
0.2824920051576627,-0.07305116344627743
0.2807715118593899,-0.07368088165909241
0.2786719425082516,-0.0744560702139627
0.2805404743143318,-0.07376642512009775
-0.062186423208519664,-0.1534422507618597
-0.02034609846542102,-0.1684349828558644
-0.018914469163833034,-0.16895180593879291
-0.0228242782335431,-0.16753982091445035
-0.020987191564178297,-0.16820356377864357
-0.01687604708279615,-0.1696897773201824
-0.027945819367097776,-0.1656859482030091
-0.02677696715053183,-0.1661070153096481
-0.02477820041869047,-0.16683113055563079
-0.03160555265038048,-0.16438095777481979
-0.030646316066717656,-0.16472249426261829
-0.034567316104487475,-0.16334123937088174
-0.03258286319040118,-0.1640361403944824
0.003285040164769209,-0.1745811116179061
0.0015304598283142786,-0.1752225947950674
-0.015111019315253906,-0.17033335783036832
-0.013054507574833597,-0.17108252124618678
0.026659195089513116,-0.16611069816200197
0.028570620851515426,-0.16542388898944538
0.0871759631253725,-0.14412937178170465
0.08533131223317089,-0.14480112689429783
0.20459665359304624,-0.10146098562590888
0.20434223695014364,-0.1015528622032257
0.20243088202353107,-0.10224395786091582
0.20047807904337078,-0.10295572252168442
0.19965562546392773,-0.1032584234749005
0.27664574972528555,-0.0752198665521864
0.3016252501587776,-0.0660707238207827
0.27868440321151927,-0.07449032379507153
0.2792999057685633,-0.07428557812078941
-0.061967423192933815,-0.15354368517363912
-0.028688994511781793,-0.1654218498581926
-0.034715579824763955,-0.16329002302630996
0.028935123027954188,-0.16529344592913706
0.08913012290613023,-0.14342133686863756
0.08327034811991835,-0.14555287623882146
0.08122543445962785,-0.14629649864572505
0.07542975749054401,-0.1484054935891322
0.07741106663359011,-0.14768577165506974
0.19047221035512985,-0.10666157136770191
0.19073109108637162,-0.10656135167493735
0.19463599284089317,-0.10513588654207086
0.1927759852546496,-0.10581232300902296
0.2063562569781588,-0.10087477208928855
0.19856208493647332,-0.10369814856996483
0.20009858257881996,-0.10314688581206238
0.303303086437502,-0.06544950817810252
0.28057132544128854,-0.07385123265919927
0.2786962759707139,-0.07452296116001941
0.278696263768187,-0.07452292761614668
0.2788214505160998,-0.07447707419379201
0.27869540249710156,-0.07452056004359893
-0.05996339023085062,-0.15439175241938846
-0.05412055608444512,-0.15637098064909144
-0.05448190633596443,-0.15624794601976888
-0.052188970856528405,-0.15706285821006497
-0.05023757024960597,-0.15777847289225494
-0.049224106450811496,-0.15816263897830163
-0.037298432730291896,-0.16241187540417634
-0.03663648281966214,-0.16263361442912538
-0.043175260543618976,-0.16050586922568344
-0.042583693333368776,-0.16070144845662876
-0.04016722857403447,-0.16146081324810604
-0.03841909398920026,-0.16203905728941548
0.03246209756844876,-0.16403163361551065
0.033147932108525645,-0.16378866158030153
0.030527487058500002,-0.16472329384829676
0.07350468497153385,-0.14910716862807497
0.0733810881762885,-0.14915272031245758
0.06765617642512821,-0.15126967808483743
0.06712683105117428,-0.15146949714899194
0.10271338364152374,-0.13849446419700095
0.10476233525679793,-0.13775412749393395
0.0900362803638608,-0.1430939260619776
0.09112112839567227,-0.14270164460363002
0.09303846426222179,-0.14200532695421797
0.07946080261439763,-0.146938911686013
0.1068214680890637,-0.1370068299587543
0.10867319272118574,-0.13634503418106983
0.12127444427940987,-0.13183420357296707
0.12041507938793526,-0.13214335851369535
0.11841656134687596,-0.132869950031562
0.16338544213121392,-0.11650844390119791
0.16139175465334069,-0.11722638251719544
0.16542419006371614,-0.11575966216692299
0.19074036254380444,-0.10658683824759314
0.18702083815717746,-0.10797881388207303
0.18880561555326122,-0.10736147588856859
0.19658803972633854,-0.10442204343107038
0.1734633293789182,-0.11284902985543005
0.17315260526547746,-0.11295827486572166
0.17129168228295172,-0.11362291877984323
0.16923906956054266,-0.11436000588706963
0.1671852029624783,-0.11511022673612814
0.18488656470961282,-0.10873480783095035
0.18289006371609093,-0.10945304064114807
