"Plane Section: Position[X] (m)","Plane Section: Position[Y] (m)"
3.5,1.9801497028812311E-4
3.2699999999999996,2.003522980147601E-4
3.04,2.078143364952871E-4
2.8100000000000005,2.1941691002331934E-4
2.58,2.3622090238166525E-4
2.35,2.665039331705123E-4
2.1200000000000006,3.065043031696297E-4
1.8900000000000001,3.58583486213692E-4
1.6600000000000006,4.3967554120903304E-4
1.4300000000000002,5.608376947012704E-4
1.2000000000000004,6.878701598482979E-4
1.1760000000000002,7.562298962407719E-4
1.1520000000000001,7.806961105858421E-4
1.1280000000000001,8.103276745081028E-4
1.104,8.435546451794307E-4
1.0800000000000005,8.773370354751716E-4
1.056,9.122560569507775E-4
1.032,9.485220936825323E-4
1.008,9.897808118226829E-4
0.9840000000000001,0.0010325806169286626
0.9600000000000001,0.0010758656400563708
0.9359999999999999,0.001125589098826218
0.912,0.00117966874153125
0.888,0.0012362195476604632
0.8640000000000002,0.0012985388253585368
0.8400000000000001,0.001367586588848971
0.8160000000000001,0.0014415318633009809
0.7920000000000005,0.0015245726099924347
0.7680000000000007,0.0016140108762867306
0.7440000000000005,0.0017133059396491372
0.7200000000000004,0.0018271006044238937
0.6960000000000006,0.0019560226822743568
0.6720000000000004,0.002105883050962999
0.6480000000000004,0.0022724954611783085
0.6240000000000003,0.002469143204121529
0.6000000000000003,0.002731405513849848
0.5760000000000003,0.0031182950627887357
0.5520000000000002,0.0037129013316033466
0.544693345617409,0.004000000000000442
0.528,0.00468264863357748
0.5040000000000001,0.005434207304283027
0.4800000000000001,0.006158627843301496
0.45599999999999996,0.005094669374644722
-0.4800000000000002,0.006153318645123586
-0.456,0.005099809589606943
-0.5040000000000002,0.005502224492247397
-0.5452920215349083,0.003999999999999159
-0.5519999999999998,0.003722735092829386
-0.5280000000000001,0.0047419920741613945
-0.5760000000000001,0.003137792403817478
-0.6000000000000001,0.0027538233253883724
-0.624,0.0024761124125880444
-0.6479999999999999,0.002272773683108171
-0.6719999999999999,0.002111319310034028
-0.6960000000000002,0.0019578809214810754
-0.7200000000000002,0.0018285452008950892
-0.744,0.0017164001802174346
-0.768,0.0016134322779350508
-0.792,0.0015240841563730527
-0.8160000000000001,0.0014416752256337104
-0.84,0.0013662848717832942
-0.864,0.001298190164690682
-0.888,0.0012361795896756826
-0.9119999999999999,0.0011782571829523295
-0.936,0.0011250766394415729
-0.96,0.0010750038795188147
-0.984,0.001030682926018283
-1.008,9.88592490658637E-4
-1.032,9.488622970024915E-4
-1.056,9.115487957864261E-4
-1.0799999999999998,8.742207003340341E-4
-1.104,8.412046428708652E-4
-1.1280000000000001,8.08748475864632E-4
-1.1520000000000001,7.847350938380164E-4
-1.1760000000000002,7.582592210508139E-4
-1.2000000000000002,6.854918914513207E-4
-1.43,5.59855881796819E-4
-1.6599999999999997,4.391937173084423E-4
-1.89,3.5943599216155925E-4
-2.12,3.050587920427984E-4
-2.3499999999999996,2.6616204357659623E-4
-2.58,2.3711560676843767E-4
-2.8099999999999996,2.1948598851290408E-4
-3.0400000000000005,2.0814422294234552E-4
-3.2700000000000005,2.0056557895067428E-4
-3.5,1.9828591787711142E-4
-0.2825191837984638,0.02217700038718571
-0.2836896545378236,0.022602992942994213
-0.28056605477154273,0.02146613207294597
-0.29997368535256197,0.028526137456401285
-0.30052694416349374,0.028727206157765476
-0.27869445797492,0.02078491249981114
-0.2943921580416866,0.026495105014980674
-0.2961743526245556,0.027143613045631516
-0.29228522541879187,0.025728892120118765
-0.29027878297424714,0.024999256655432435
-0.28642564735781884,0.023598171491068652
-0.2883789307531599,0.024308602602213007
-0.284484256451143,0.02289203144758716
-0.2980738801552259,0.027834992617993427
-0.3016427766322567,0.02913102748621823
-0.26103507703942264,0.014356590410772356
-0.2590819943289583,0.013645594868135633
-0.2572133558636317,0.012965336955942184
-0.276659824551124,0.020044318987784103
-0.2729139322244838,0.01868069740850299
-0.2747067179465025,0.019333389080895547
-0.2708005205336123,0.017911485875524557
-0.26879648341667595,0.01718197812054607
-0.2630027280883808,0.01507288406229882
-0.2649412471244548,0.01577856868404651
-0.30289050635811987,0.02958545419197231
-0.255175832704912,0.012223593353068274
-0.2532227536095085,0.01151258788008781
-0.2514334758039854,0.010861106469537278
-0.26689433534198126,0.0164895490991286
-0.30334860599464175,0.029752310498231817
-0.23573245240908236,0.005145258983950971
-0.23759814955864036,0.0058244652252721595
-0.24731514567085827,0.009361936793409787
-0.2493166007681325,0.010090562239644229
-0.23955122356866337,0.00653548466747192
-0.3035144655651042,0.02980883289663328
-0.23173892542077876,0.0036914126886659804
-0.23369199995367945,0.004402430694550898
-0.22995317305448937,0.003041209053631265
-0.22783277886703135,0.0022693697764441904
-0.22583389482875635,0.0015416684194186003
-0.24541044860396316,0.008668534738880322
-0.24345737290523956,0.00795751993543984
-0.2415215540243702,0.007252784101506158
-0.3035575935479671,0.02982202340306806
-0.30353010625125953,0.029804548733812206
-0.2142516152330352,-0.0026749562993249967
-0.2161143505382295,-0.0019967900897326727
-0.22392663544781166,8.473182538728509E-4
-0.22197356445008376,1.3629053709417053E-4
-0.22004044404731626,-5.674706908949936E-4
-0.21806741670836277,-0.001285749111849429
-0.3034118836550511,0.029743712697863467
-0.20847297717436378,-0.004778860731349924
-0.2102551458899325,-0.004129896162956311
-0.20435274131666498,-0.006278855385462179
-0.20634903196954735,-0.005552028716953575
-0.21220821167358667,-0.0034188541234432277
-0.30343913619250756,0.029729773307042875
-0.20292698028575665,-0.006797999258675793
-0.30375304086233573,0.029820354368362546
-0.1896493970287379,-0.011637075676315785
-0.1907260662183447,-0.011244651677669986
-0.20049017150540732,-0.007686080242347304
-0.2024429878709962,-0.006974353067136941
-0.19856002129415018,-0.008389591462532538
-0.19277223514598557,-0.010499127811770776
-0.19463176991487727,-0.009821392264602933
-0.30419911968000546,0.02995484887353142
-0.18486773924177596,-0.013380168659795076
-0.18287424056871587,-0.014106653973803448
-0.18877332080205983,-0.011956573746148249
-0.18699523279949776,-0.01260553754483328
-0.1965845430770935,-0.009109546412463504
-0.3047754378826612,0.030132534935633254
-0.1790091673912521,-0.015515012988593032
-0.17708164477183708,-0.0162173107290319
-0.17315043868146962,-0.017649426434898006
-0.17510331127669326,-0.01693785371895535
-0.17129387599329154,-0.01832605584088657
-0.1809620635055037,-0.01480350487793538
-0.30577127654094566,0.030473914152567446
-0.16924466311093955,-0.019072488414620004
-0.16719008320793605,-0.019820748069758327
-0.16275291735258557,-0.021436740465075804
-0.1633856569847722,-0.021206139815619918
-0.30581343049990145,0.030450332634603547
-0.31640388668544445,0.03071867817958638
-0.3144507602202371,0.030741791177988503
-0.31327641130938666,0.030683814549487577
-0.16542640373837753,-0.02046285310624305
-0.16139485480699195,-0.02193200902105454
-0.3085914318233161,0.030004499121938647
-0.3066383211143271,0.029778400781946886
-0.31678355884226767,0.030684036286509578
-0.31249764404098423,0.030602214346038645
-0.15166883595832292,-0.02547671483998229
-0.14981511921589907,-0.026151841994349573
-0.15948003808525796,-0.022629632160736064
-0.15752726334933717,-0.023341473690021854
-0.15560252717145182,-0.024042971316147757
-0.31054453880645916,0.030289528036177467
-0.317402894329831,0.02873095043967236
-0.31445100393745606,0.0268869895220318
-0.3164040499212984,0.02813682597844233
-0.3142874387424721,0.026777628463204174
-0.14571132107843401,-0.027648053871154793
-0.14776303415904946,-0.026899704771009364
-0.14190476627319037,-0.029035384071570403
-0.14394761663924788,-0.028290808119986556
-0.15362159841383882,-0.024764839577205926
-0.13991647869932805,-0.029760124780453378
-0.3124979605853705,0.02559552738318197
-0.1379992979203733,-0.03045928995898392
-0.137228298402882,-0.030741101031450193
-0.13019010390225083,-0.0333118887864922
-0.12834007275909642,-0.03398776875742235
-0.31144544230407767,0.024824323776008878
-0.12628506101688364,-0.034736963406160636
-0.1360474501802281,-0.03117367788719696
-0.13412615807230202,-0.031876158243249776
-0.1321426213741569,-0.032599340569186244
-0.3105449237888087,0.024200378475069832
-0.3088402310381226,0.02287103405939188
-0.30663886596189566,0.0211607113042305
-0.3085918941701029,0.022691699616274912
-0.3063564952577581,0.020917752022972042
-0.30419003863784955,0.018964490046321347
-0.3046858495277752,0.019443495878416844
-0.12423586236641679,-0.035484426165516406
-0.12042734035297581,-0.036874145890888305
-0.11842961199765395,-0.03760290706657432
-0.30273286099155655,0.01728502772325137
-0.30251235497798684,0.01701125897200963
-0.12247220433076983,-0.036128034368597385
-0.11825239734220641,-0.037667620027609997
-0.1068654706008103,-0.04182486270569161
-0.10871252867675119,-0.041150240473592996
-0.30143744764881464,0.01505806600782184
-0.1145702478119145,-0.039013053789474395
-0.1165228930675103,-0.03830085658590975
-0.11265022239415001,-0.0397105114723377
-0.1106643788290673,-0.04043585917145607
-0.0989492597635015,-0.04471110937502752
-0.09696660241153268,-0.045435204645047814
-0.10480722510773194,-0.042574599011700076
-0.10276082649983538,-0.04332195205399268
-0.10099725795517384,-0.04396654141490994
-0.30110244797801633,0.013104919823792763
-0.0953659941312836,-0.046026973974281224
-0.30162720227194173,0.01115182799712399
-0.09117563534081617,-0.04754854432740066
-0.0920165128215203,-0.047246325299379575
-0.08723217960399378,-0.04898097257723353
-0.08918476159157604,-0.04826860158042548
-0.08548720342203268,-0.04962326707990223
-0.08332708818325539,-0.05040591387329019
-0.08516998128593366,-0.049738749208695185
-0.08127884263143112,-0.051140384131087145
-0.09504764385448487,-0.04614559768259998
-0.09309526838595769,-0.04685853597423444
-0.07548346728954863,-0.05325020769562876
-0.07746434856936849,-0.05252930961897606
-0.06484170668514647,-0.057139091613721646
-0.06574784441220903,-0.05680075506330177
-0.30332867662810953,0.009198810567782332
-0.3027333300818213,0.009865568660530313
-0.08539003954762407,-0.04965962449794314
-0.0795128151044188,-0.05177896316422702
-0.07355553285826834,-0.05394402052428435
-0.07160216667424663,-0.054654237382934207
-0.0696891296626708,-0.055353811801254094
-0.06769760964044838,-0.05608064660621312
-0.06391686450813899,-0.057500526126990845
-0.3046865452032873,0.008440206374524202
-0.06185696638011171,-0.05826473964155309
0.2591030590547296,0.01356200193149
0.2610555797268914,0.014274542011150346
0.25723506054312895,0.012879985370142392
-0.3074363727698009,0.007245945270179849
-0.3066397272149202,0.007538532268650205
-0.061243383556488465,-0.058490650330562326
0.2649608138335795,0.01569909245603747
0.2630227340511775,0.014992200715165537
0.2551981477760292,0.012136564349512576
0.2532456834828087,0.011423869339510152
0.25145712880948967,0.01077040066619122
0.24734054987219145,0.009266418596127557
0.24934100365222284,0.00999779573403586
0.24720504859875975,0.009216803466401146
0.2376314372226419,0.005707282862513745
0.23958301657229475,0.006422409713269489
0.23576715410294047,0.005024190790418466
0.2766782532470029,0.019967970227057246
0.2747250532148535,0.019257297040806375
0.2729324461910836,0.018604114243001763
0.28058497812799993,0.021388423997468667
0.27871309615708706,0.0207079880835193
0.29619677457811183,0.02705931837379899
0.2944135778450274,0.026410821781990286
-0.30859288672906127,0.006992694252318846
-0.3164054251640732,0.006385026251954278
-0.31445229840887323,0.006412725981709546
-0.3124991674842699,0.006506371906206806
-0.059816745220782,-0.05901343480795903
-0.05599738595938446,-0.060396813491604175
-0.05776895975492807,-0.05975548594975041
-0.05402002346184982,-0.06111928753885987
-0.05389137546094023,-0.06116708885473497
-0.04428345320035504,-0.06467532240442143
-0.04244832384799005,-0.0653540986532917
0.005346168972893655,-0.07873674135923217
0.005268965552169634,-0.0787647134691279
-0.003785559515952346,-0.07930750924979732
-0.003350587541691276,-0.07946419339077349
-0.005889152695602115,-0.07855404475140415
-0.005278799569446369,-0.0787719994411197
-0.0015951503789865824,-0.0801016629559116
-4.679213841477282E-6,-0.08068086621596454
0.23177670900633046,0.0035618752899642322
0.23372816836535093,0.0042773318771246105
0.23151168663599808,0.003464393810242431
0.27081910531395675,0.017834708115177428
0.26881541838300244,0.017104238008850838
0.26691355402040656,0.016411029305467367
0.24543788241735154,0.0085674390795789
0.243486264496239,0.007852418223883224
0.24155192416821897,0.0071436192462763955
0.29029902882877534,0.024917819224476355
0.2923057653288171,0.025646532561839363
0.28644545707302327,0.023518025468072797
0.2883990064615157,0.024227710228939214
0.2845038263207002,0.022812546420290118
0.2825384875239445,0.022098247046468098
0.2981013873191055,0.027750759683882527
-0.3105460308067296,0.006691010271839213
-0.3222647999641817,0.006388372984701435
-0.3203116745383653,0.006395046360876528
-0.3183585498542315,0.006389988669640748
-0.3242179261379764,0.00636986917474814
-0.05805109046283674,-0.05965379133479871
-0.05209694553495242,-0.06183453078119384
-0.05014961686189099,-0.06256133230168179
-0.04823948991162068,-0.06326032124505812
-0.04624030804480134,-0.06397468867593836
-0.04038698811711812,-0.06612395970556031
-0.03835149574053947,-0.06687781854197723
0.009090858156140582,-0.07738277382464487
0.009835049865099806,-0.07711557458224558
0.01102517930305279,-0.0766931664641068
0.011726179055294928,-0.07644589153556197
0.007148441274789722,-0.07808461373897621
0.0033423800351050866,-0.07946330348195409
0.0015862857817026108,-0.08010163903589666
-0.0071618828122220835,-0.07810378005178634
-0.007731230584810272,-0.07790194847209675
0.22999386868691013,0.0029036692136129335
0.22787565476876204,0.0021258384899343627
0.22587897475602303,0.0013920803732516394
0.3000062416098497,0.028441761073167007
-0.32812418113602837,0.006290939929417688
-0.32617105316242895,0.006337910722474759
-0.03759342208769165,-0.06716265355981987
-0.03268475951149568,-0.06904325385365881
-0.03454888916157284,-0.0683150417857109
0.013007696840649499,-0.07600381604034631
0.013235785726710749,-0.07592429215706892
-0.009016995958027832,-0.07746162179084687
0.06575006294423358,-0.056832585589171564
0.06770343711645938,-0.05612239094296654
0.06391084694602632,-0.0575097353066778
0.05980666127056876,-0.05901147663393283
0.061847769889335845,-0.05826521809700129
0.058042222744178584,-0.05965517459138439
0.05599060330374762,-0.060403924987151004
0.05401322100231302,-0.06112634557646202
0.052568348094510914,-0.06165284300498657
0.08540671931537708,-0.04973119755351209
0.08724298040769293,-0.04903638729627925
0.07698243661177742,-0.05276858949455414
0.07549472559839408,-0.053306877233231284
0.1634250891863058,-0.02134021424135413
0.16143611779837838,-0.022071114933597626
0.1654641014041126,-0.020592160817403254
0.15008860974735988,-0.026227777773514066
0.1517134676664396,-0.025625079687980796
0.16929423983288003,-0.019234439765255795
0.16968249541730446,-0.019097589504422405
0.16723158872300642,-0.019960519757122652
0.2239739527611031,6.915817737084104E-4
0.2220234715933746,-2.6562900632103137E-5
0.22009298934981514,-7.375738939382737E-4
0.2167635456200368,-0.001964859554546406
0.2181226654612531,-0.0014632814988762414
0.21431321252372548,-0.0028699347100478376
0.21617263915762133,-0.00218267614789457
0.20854453469885811,-0.005001210269409683
0.21032312051840152,-0.004342399731536906
0.20443176654855363,-0.006521726439186059
0.20642441710218679,-0.005784896630702374
0.20178222817887048,-0.007510177985238705
0.20252702432256675,-0.007230995182698268
0.21227302745219812,-0.0036226770520711602
0.3016920655687412,0.02905243172148885
-0.33398356941209956,0.006081141535132624
-0.33203043951919636,0.0061584693584745415
-0.3300773100100078,0.006229728100435861
-0.3359366996022328,0.005999112508744341
-0.03659317191854508,-0.06753907556031519
-0.03259029001688504,-0.06908095340123174
0.015077065969612807,-0.0752901941773057
-0.010759514477788284,-0.07686889070975811
-0.009115789172820776,-0.07742902925412273
0.042439409759382166,-0.06535536190805422
0.044277705835705866,-0.06468528410535777
0.040376042055327674,-0.06611964587083755
0.03834229389453195,-0.06687830236068205
0.015413154254578015,-0.07517356736483087
0.01685335468435825,-0.07467759076228794
0.01889862495072801,-0.07395843926501605
0.07356797895930196,-0.054003951391741294
0.0716131933485241,-0.05471026737954664
0.0696972957146472,-0.05540198189834468
0.05208551227889822,-0.06182886862348895
0.05013321732610295,-0.06254202898400367
0.04822512486485046,-0.06324661004596116
0.04623264987805854,-0.0639794034903581
0.09119087709935078,-0.047616163867869904
0.09311057946591979,-0.0469263490276454
0.08919745888833909,-0.04832922730938141
0.08334617771214477,-0.05048410740987081
0.08129701884830787,-0.05121606403719918
0.07747749435769481,-0.052591166013081656
0.1595216556805002,-0.02276971276967855
0.15756967534340682,-0.02348373769977713
0.15564510324179023,-0.024185686540845897
0.1412498181695794,-0.029537839420968784
0.14197833016780112,-0.02926325676705152
0.15366308922383862,-0.024904572789075458
0.14986513834103823,-0.026315011709951642
0.14577182163437105,-0.027840027632733876
0.14782250520191606,-0.027088848860944745
0.1440133111099143,-0.028497055136539266
0.19084185683830782,-0.011588556792610259
0.18890036289457396,-0.012331398519326272
0.1886443212401484,-0.012431500572755135
0.19288095405234357,-0.010823599460391724
0.19473444613952184,-0.010129258195983098
0.16929826508986537,-0.01924550124348902
0.1672680485603213,-0.02006071204256342
0.16698314122443816,-0.02017351826174741
0.2005796230742779,-0.007957603530779053
0.19865403416790056,-0.008673649643779409
0.30231054605630203,0.02928403205682293
-0.33984296134804237,0.005813456041380649
-0.33788983015162766,0.005911401140563437
-0.0213065804097032,-0.07318538706233438
-0.021005801192518072,-0.07327907927722954
-0.018611112931156942,-0.074073008238178
-0.01686617154980015,-0.07468704321468997
-0.03069531860688609,-0.06988150765156458
-0.015095899705864627,-0.07531622072926855
-0.013037625339719238,-0.07606055698545014
-0.011061659935441824,-0.07676901086864633
0.03658142882746568,-0.0675325833861675
0.03656481167828492,-0.06753893304356469
0.019637627652378916,-0.0736987122229513
0.02098306503103456,-0.07324240111313945
0.022249218162077356,-0.07284199544601377
0.10123306892913092,-0.04400624243795746
0.10102861283264461,-0.04407843758424711
0.10486025846970733,-0.0427460662279251
0.1028040525322551,-0.04346646943039686
0.0989775165428182,-0.04481449162246608
0.09699107806137772,-0.04552819713824429
0.09506538604375234,-0.04622009065767582
0.07952852831098059,-0.05184787321367002
0.11658449880177749,-0.038495877503062464
0.11462786088379429,-0.03919710331751685
0.11271182166094051,-0.039905514657744584
0.106927804721205,-0.042021888365342916
0.10877173292795021,-0.04133866438078955
0.11727462181090664,-0.03826238067355554
0.11973787423868729,-0.03750646264769838
0.1185204354824419,-0.03787821750885316
0.1628403563898417,-0.021821528184987463
0.16350245008669267,-0.021552803380098753
0.1655203590085142,-0.020746757721104663
0.14000257555016077,-0.030022438633355082
0.18713068698711538,-0.013003479528809363
0.19668291391821785,-0.009405580692560311
0.18500967538752583,-0.01379592328036329
0.18302125498764288,-0.014536364096536475
0.17724656232307026,-0.016696219787356775
0.17916839572966237,-0.01597828773222488
0.30338286600900344,0.029683927953576522
-0.34374922619443604,0.005578758530557931
-0.3417960933392461,0.005702940003990835
-0.018911852108921778,-0.07396901124236555
-0.022555327248685655,-0.07287125360773322
-0.03033067100366601,-0.07004070319292345
0.034546668670127595,-0.06833472897305484
0.03397163785468893,-0.06857622290933924
0.024209394626973788,-0.0722691460768529
