"Plane Section: Position[X] (m)","Plane Section: Position[Y] (m)"
3.5,5.287657787486165E-4
3.2700000000000005,5.36162567099524E-4
3.0399999999999996,5.573869214361788E-4
2.8100000000000005,5.881809409161215E-4
2.58,6.372478778406806E-4
2.3499999999999996,7.193655733035613E-4
2.12,8.286441802886563E-4
1.8900000000000001,9.785113544892865E-4
1.6600000000000004,0.0012108864005685904
1.4300000000000002,0.0015610869203457234
1.2000000000000004,0.001937309635002392
1.1760000000000002,0.0021447692124863726
1.1520000000000001,0.0022206066719990627
1.128,0.0023025485982352293
1.104,0.002396987075116051
1.08,0.0024942431899981684
1.056,0.0025935461644117325
1.032,0.0027060146460894576
1.008,0.0028293769561403836
0.984,0.002956721040236276
0.96,0.0030999113456237444
0.9359999999999997,0.003263640867524206
0.912,0.0034431891084199355
0.8879999999999999,0.0036453878667154498
0.8640000000000001,0.003877200822289365
0.8528317128045828,0.004000000000000163
0.8399999999999999,0.004141324175122096
0.8159999999999998,0.004415913078407141
0.7920000000000003,0.004726771779845984
0.7680000000000006,0.005058813265518363
0.7440000000000004,0.005424407205302257
0.7200000000000003,0.005835292161434993
0.6960000000000004,0.006270516156366755
0.6720000000000004,0.006836061535861689
0.6480000000000001,0.007464091475522065
0.6240000000000001,0.008168598064312988
0.6000000000000001,0.0090884546427807
0.5760000000000001,0.010334035879634215
0.5528070587006966,0.01199999999999993
0.552,0.012063476472254463
0.528,0.013837094336063449
0.5040000000000002,0.014905633650354237
0.48000000000000026,0.016746743532677945
0.45600000000000035,0.019138433860413563
-0.4800000000000001,0.01673305684803525
-0.45599999999999985,0.01913389487532718
-0.5040000000000002,0.01495262842426771
-0.5280000000000002,0.013877534308416768
-0.5533471590187053,0.01199999999999847
-0.5760000000000003,0.01038721330072597
-0.5520000000000003,0.012104199121281297
-0.6000000000000002,0.00911869084711353
-0.6240000000000002,0.008174078200163425
-0.6480000000000001,0.00743587535825096
-0.6720000000000002,0.00683074556016801
-0.6960000000000002,0.006277619022317838
-0.7200000000000002,0.005811110963449739
-0.7440000000000002,0.005407731362340906
-0.768,0.0050395853397174496
-0.792,0.004707697264784
-0.8160000000000001,0.004401917084272634
-0.8516949792368924,0.003999999999999517
-0.8640000000000001,0.0038701507116200807
-0.8400000000000001,0.004123792732120705
-0.888,0.0036439973144212837
-0.9120000000000001,0.0034398212057238763
-0.9360000000000002,0.003266513229921717
-0.96,0.0031088613102623003
-0.984,0.0029668288246380977
-1.008,0.0028370741746583366
-1.032,0.0027177294015577097
-1.056,0.002605196512072348
-1.08,0.002498080771512654
-1.104,0.002403053594529127
-1.1280000000000001,0.002310290185695418
-1.1520000000000001,0.002225812737510659
-1.1760000000000002,0.002146900697420428
-1.2000000000000002,0.001941917878456983
-1.43,0.001563708351904512
-1.6599999999999997,0.0012116028525776328
-1.89,9.81337206335381E-4
-2.12,8.255089372075428E-4
-2.35,7.163782783753279E-4
-2.58,6.403824075794064E-4
-2.8099999999999996,5.911554056940146E-4
-3.04,5.56154399792433E-4
-3.27,5.358512081246781E-4
-3.5,5.316215570292977E-4
-0.34765783630707664,0.04321940690727769
-0.3454048656630898,0.04035580091153981
-0.3515635739311813,0.04772112361673207
-0.34847540949596234,0.04426240043691261
-0.30164693853260327,-0.00220971032388541
-0.29998006469853117,-0.002816400447722342
-0.34375223892774354,0.03748556529559591
-0.34309039395513097,0.036449287444949366
-0.35193205972754205,0.048169043910272644
-0.29439969786973424,-0.004848738679891226
-0.2961817405263567,-0.00419992298969183
-0.29229305935666394,-0.00561573526989468
-0.2902869061532175,-0.006346162827468015
-0.28838740082818526,-0.007037769568409826
-0.286434356109154,-0.007748856286724254
-0.2844931922329864,-0.008455619961774524
-0.28252825890501815,-0.00917103373287422
-0.2805752142253869,-0.009882133736285546
-0.3033480304082175,-0.001588900253125958
-0.2980810179715503,-0.003508296948918509
-0.3417290746423616,0.03254288246951161
-0.3554693481952257,0.051900939049508696
-0.3556498880952586,0.05207571711184428
-0.2787036917779253,-0.010563557533854594
-0.3034270059765241,-0.001560174096494533
-0.34105919966968884,0.03058968120934241
-0.35937518962086756,0.055490704173743716
-0.2610447708187745,-0.016993143080312086
-0.25909173140266256,-0.01770425754001802
-0.25722313571509875,-0.018384632949623673
-0.276669126633914,-0.011304338598374547
-0.274716081397721,-0.012015437073188745
-0.27292333539591135,-0.012668237838528452
-0.27080999441917636,-0.013437643618684235
-0.26880600686334954,-0.01416728750779869
-0.2649508637145928,-0.015570952786637195
-0.2630123829477537,-0.016276742525153497
-0.3035169974720545,-0.0015301928738790786
-0.34003805951351596,0.02863643996693589
-0.3386673275332286,0.02668315893276477
-0.33984702385820365,0.028392929069185637
-0.3828135143673813,0.04824620159335328
-0.3827239594877251,0.048172548752339485
-0.3600370420921483,0.05598246649840495
-0.2551856487070046,-0.019126475848480953
-0.25323260458797875,-0.0198375773916109
-0.251443364669337,-0.02048916285057486
-0.2669039071423424,-0.01485984934492058
-0.3035330484526717,-0.0015287054147497398
-0.38584325854524293,0.05207915382720463
-0.382203770004596,0.046219364529895446
-0.3378941941628789,0.025798409479449683
-0.33703502172711697,0.024729848125340334
-0.3353703189601957,0.022776533630382102
-0.33594133297356793,0.02348058125558005
-0.38671920767093065,0.0531372979727849
-0.38958022648118584,0.05598582920730996
-0.3632811035649564,0.05844335616725093
-0.3657004989896989,0.05988936115824463
-0.2357426453584817,-0.026205845564396257
-0.23760830107330835,-0.02552652551696779
-0.2493265360452416,-0.021259834571067192
-0.2473251169344479,-0.021988558860631724
-0.23956134167335066,-0.024815414308935364
-0.30370224301560833,-0.0014722670446354197
-0.3335608730930833,0.020823202660257382
-0.3339884534232731,0.021324064044661556
-0.3817405539941081,0.04426618679237009
-0.3906250322376586,0.05687517761245701
-0.367187070813367,0.060927701400631196
-0.3710931015140727,0.06285458449929356
-0.3732495431296692,0.06379647044223374
-0.23174919775681765,-0.02765990990643849
-0.2337022360573457,-0.026948792382782773
-0.22996348013256052,-0.028310208951745235
-0.22784314156185806,-0.029082200999182052
-0.22584430012942425,-0.029810019377980373
-0.2454204529687803,-0.02268205183366515
-0.2434674159541124,-0.023393172888938957
-0.24153163862844534,-0.024098022859798045
-0.30387080245736703,-0.001417954560461491
-0.3320355603739772,0.019286142715931258
-0.33167402043496097,0.018869862879413973
-0.3813650596208858,0.04231301903963389
-0.3945310412880125,0.05899227050807243
-0.39634111986598874,0.059892848781217145
-0.37499914983729643,0.06462664448404959
-0.21426224257113985,-0.03402725394322596
-0.2161249374929548,-0.033348976820392826
-0.22393706961907234,-0.030504448840450966
-0.2219840299648487,-0.031215562646169683
-0.22005096169989452,-0.0319194670751908
-0.21807798058689165,-0.03263787246185348
-0.3040650157945528,-0.0013564971062375972
-0.3300826542579463,0.01736301957431994
-0.32966835541004846,0.016916509574934353
-0.3274693978155703,0.014963134269215745
-0.3281297270155928,0.01562550244759051
-0.38120805540465896,0.04035987615621314
-0.3984370386020238,0.06121247345313445
-0.3828113734591192,0.06705521818780784
-0.38539484336693985,0.06770410288821926
-0.37890524745688303,0.0659656096506259
-0.20848371744831376,-0.03613146854394928
-0.210265870559081,-0.03548246113489604
-0.20535730047680903,-0.03726994656168538
-0.2063598414266663,-0.036904826555034194
-0.2122189035622535,-0.03477132906202924
-0.3043764233274974,-0.0012528111156483203
-0.32617680487857675,0.013843132218526098
-0.3252862598402566,0.013009760764140989
-0.3228779274807209,0.01105636162665444
-0.3242238695182571,0.012176935740218015
-0.3814534288193814,0.038406779072826705
-0.40234309565203424,0.0629078639354792
-0.4048844846576254,0.06380007124227015
-0.38671751239442864,0.06803120277650218
-0.3906236929186462,0.06864180674053505
-0.20436371893554844,-0.03763211507557425
-0.3046738664313017,-0.0011559175754320803
-0.32045050812200737,0.009102960316616998
-0.32227092841269833,0.010561214218105708
-0.38238759550378787,0.03645376039030704
-0.4062491163867643,0.06492230338795392
-0.394529893710868,0.06907434545317742
-0.3984361149882947,0.06932691079962852
-0.2024540832825372,-0.03832793624574979
-0.20050122686105085,-0.03903955330102674
-0.19857122069994387,-0.03974346004436674
-0.19278354864653693,-0.041853309425433624
-0.19464302573808934,-0.041175415569168095
-0.19219131420245325,-0.04206915159950558
-0.30501103070564545,-0.0010547147889131295
-0.3054932628504932,-8.881997621876431E-4
-0.3054289779142253,-9.071030041522055E-4
-0.320317981785984,0.008993999023179062
-0.3183650220311737,0.0075421211139713035
-0.31786853680805605,0.007149541414928488
-0.31529689286051377,0.005196123688741811
-0.31641206895001905,0.006031611570638365
-0.382814901670239,0.036058008874382944
-0.41015515270819136,0.06679980547372305
-0.4132568875512678,0.06770727424384473
-0.40234235938282403,0.06937638014217122
-0.4062486281534259,0.06921169268260054
-0.18487930225978508,-0.04473503512303796
-0.18288584913408248,-0.04546164543422488
-0.19073756937464306,-0.04259935410192238
-0.18878493269882585,-0.04331157468969629
-0.18700676176789044,-0.04396031050085887
-0.19659582619115915,-0.04046364479638567
-0.3056446820056138,-8.107359331079552E-4
-0.31445910918478703,0.004579825180963128
-0.3125061242331663,0.0033493146160560342
-0.38672127192995726,0.035001685628584744
-0.38476809001226675,0.03550162664151435
-0.41015494203208686,0.068650706989857
-0.1770933164576493,-0.04757247530774114
-0.1790207423044186,-0.04686991185633611
-0.1731621819913023,-0.049004787607072386
-0.17511508566143133,-0.04829330032041599
-0.17130547839890747,-0.04968102992035371
-0.1809736312780158,-0.04615838420558335
-0.31235035503167385,0.003242663290820529
-0.30577765713305677,-7.620261987193168E-4
-0.3066471380512451,-6.699225092248496E-5
-0.3062506593782205,-6.642810232415827E-4
-0.3886744038989063,0.03494057085873191
-0.1692562693278133,-0.05042747290965845
-0.16832104104378193,-0.05076851867271037
-0.31055313947082097,0.002117141134244322
-0.30919549691064163,0.001289179181153001
-0.3086001510873508,9.167812061678394E-4
-0.3906275227337352,0.03499484631586358
-0.16720211820446265,-0.05117691017565095
-0.161407811746258,-0.05329070305384037
-0.16339865708908644,-0.052564952551062
-0.39217019450800017,0.03450174886739742
-0.15168186754836344,-0.05683561338040487
-0.14982814079076387,-0.057510712994194677
-0.1594931013345114,-0.053988618105617545
-0.15754021551245784,-0.054700154412105094
-0.1556154583839971,-0.05540159439204097
-0.16543911610267284,-0.051820875605632734
-0.39363373516154304,0.032548790440080154
-0.3925807354539778,0.034224288512942166
-0.14572368418355236,-0.059005116083408846
-0.14777586057351266,-0.05825803965641385
-0.14191667148540035,-0.060391188473738255
-0.14395977018802897,-0.05964729469564543
-0.1536347139911238,-0.05612396891851405
-0.13992816288159765,-0.06111532200282046
-0.39407934782777493,0.03059571614862813
-0.13801080407947397,-0.061813998076434104
-0.13605835017975845,-0.06252672065960352
-0.1354289644185999,-0.0627568271963384
-0.1302018898743716,-0.06466736409121158
-0.12835183733270566,-0.06534318496608545
-0.3949377741047208,0.028642688845068993
-0.3945344111579332,0.029386172764280336
-0.12629727189023704,-0.06609360523660432
-0.13413764798692004,-0.06323082080398934
-0.13215453250744924,-0.06395515986508926
-0.40234717392042063,0.027078109280079858
-0.40039403752694536,0.027178095860466135
-0.39844088847019626,0.027389336031068343
-0.3964877262188672,0.02771649761857289
-0.12424824272329546,-0.06684153328728745
-0.12043909933834765,-0.06822954597530308
-0.11844160453132119,-0.0689589483913299
-0.404408851728976,0.02669064186370379
-0.40430033846446134,0.02673080498934505
-0.1224842053740064,-0.06748409949353545
-0.1177907492945527,-0.06919738366419563
-0.10709475458155669,-0.07311953237721405
-0.10873025504342793,-0.0725220284587122
-0.40625353633221717,0.026090734161376535
-0.4094279789554362,0.024738088145726977
-0.40820675801536066,0.025241432521715408
-0.11458506056392131,-0.07037684015279835
-0.11653603174741961,-0.06966004528273723
-0.11266757480355377,-0.07108127323411811
-0.11068347466620472,-0.07181140893744238
-0.10688335410964216,-0.07319708198187777
-0.4101599697209654,0.024479788870650224
-0.09897372654825737,-0.07610140906675451
-0.0969867624740269,-0.07681367558909499
-0.09310392687398396,-0.0782054158604934
-0.09488408163501448,-0.07756542791795897
-0.10482975954304896,-0.07395959202464844
-0.10278662451817241,-0.07471590819031203
-0.10102327761603866,-0.0753611059423902
-0.4140664032562662,0.02286755600140288
-0.4121131776020133,0.023751745948347582
-0.09118549464111597,-0.07889872348323362
-0.08724162121050014,-0.08033000498925422
-0.0891957177912352,-0.07962179403704947
-0.08539482956233822,-0.08099588018232985
-0.08333283813195858,-0.08174480668372765
-0.08129187707601004,-0.08249928540430608
-0.0950601673000786,-0.0775030929894023
-0.41426766932888925,0.022785514003616378
-0.07953075283211969,-0.0831513319356738
-0.07827654963879135,-0.08361221606533477
-0.07748334133414031,-0.0839045754208327
-0.0755049406562057,-0.08463228652118487
-0.06392903629214841,-0.0888570526571116
-0.06577448910166747,-0.08819703610372431
0.26104234954350497,-0.017092312035946175
0.2607613916435468,-0.017195100391284662
0.2786968626536371,-0.010650610317652593
0.28056811055266495,-0.009968431783783697
0.27826834243620036,-0.010806852055435925
0.2980760369033007,-0.0035873626857174977
0.29739395818985936,-0.003835831810546888
0.29617347558982154,-0.004280936843826272
0.29439142165483956,-0.004931715166060614
-0.421828355318903,0.02083324957477355
-0.4199259591315082,0.021278804203173535
-0.4179727802951507,0.021751674049342716
-0.41601960400737203,0.022202153445549207
-0.07358289241785401,-0.0853422669301942
-0.07163061680252136,-0.08605547917223871
-0.06971812503219132,-0.08675655066814786
-0.06772827536685062,-0.08748797286842443
-0.06186177606749768,-0.08960104415701325
0.2649473480889266,-0.015667113668455655
0.26300923283568506,-0.016373908153474753
0.259091756387902,-0.017810150088529337
0.25722455056714544,-0.01849434564251097
0.2766631430041819,-0.011393715344843423
0.27471095318537475,-0.012107165047369002
0.27291879028086324,-0.012761568611159617
0.2999763443487774,-0.0028941397409523754
0.29027894384660435,-0.006430198112470744
0.29228468389663204,-0.005698770595233059
0.2864268021582116,-0.00783391833685004
0.2883797297293383,-0.007122525132407111
0.2844858205705784,-0.008541181401433272
0.2825210600368866,-0.009257069984167622
-0.421879136248658,0.020821038497099955
-0.05981994027664071,-0.09034530390907432
0.011003019219812688,-0.10803543741060695
0.011545676933807699,-0.10783925275715917
-0.004167913938903482,-0.11052831027534198
-0.0033629990509397778,-0.11082000540855125
-0.006592080924409228,-0.10965389425754486
-0.005289293635278718,-0.11012307278835631
-0.0016087517363235265,-0.11145956198144218
-0.0012835385062711642,-0.1115785088951777
0.2708055076273175,-0.013531134822693606
0.2688017258039874,-0.014261344315113774
0.2668999612029106,-0.014954827371826962
0.2551879682226467,-0.01923867512620031
0.25323550833293423,-0.019951382552184718
0.2514470381763427,-0.020605083886491952
0.3016542253061095,-0.0022829739927621856
-0.42773853567851633,0.020606742634693878
-0.4257854152718356,0.020566276746587876
-0.42383228684596974,0.020596263665870442
-0.05806050077094517,-0.09100273099748753
-0.05699317258213801,-0.09140309471229188
-0.05100882402189289,-0.09358199088735729
-0.05015202695873586,-0.09389104156504459
-0.0482412282958599,-0.09458818515080396
-0.04430147874718059,-0.09604792258950073
-0.04247475296028816,-0.09674977778810084
0.014938411691542447,-0.10661716623666002
0.012977454708746589,-0.10732390329160399
0.00907287189649153,-0.10873647706072587
0.007131673961409879,-0.10944155914945557
0.0033259454696604293,-0.11082005592924227
0.00456020501875771,-0.1103726357811446
0.005252564133605292,-0.1101224197165539
0.001570757157321819,-0.11145950205969964
0.001187767311748588,-0.11159966802696639
-0.00716953074946934,-0.10944742625283801
-1.92566295333069E-5,-0.11204354702361691
-0.008839495658230683,-0.10884794413353252
0.016804992709576298,-0.10594789966131071
0.0180956300664617,-0.10548693562592142
0.1771004406160338,-0.04769789411999526
0.17902840355375915,-0.04699680618728393
0.2493833081121035,-0.02136266143883797
0.24733517456471074,-0.02212202664236896
0.2493323270236881,-0.02138157550357991
0.2454323182868503,-0.022820488113785772
0.24348261115893663,-0.02354076136974275
0.24171132920441624,-0.02419566038269944
0.2395855454486995,-0.024987762743334297
0.23763559018751873,-0.025707354017254557
0.23577509920210188,-0.026400869241868706
0.30245894815546126,-0.0019885579970504086
0.34765466921602717,0.04322836537149154
0.3454672925317416,0.04027716341852266
-0.42969166758033406,0.020546217654367566
-0.056016607155185916,-0.0917726994515213
-0.05404033267482228,-0.0924981613851179
-0.052108192057314186,-0.09318851180659485
-0.0480241461465369,-0.09466870954034873
-0.04624928863257603,-0.09532244519968314
-0.04240135961632631,-0.0967783902793459
0.01503651804776955,-0.1065819723195815
-0.013024614740633903,-0.10734264334597508
-0.013022920745613321,-0.10734324937575994
-0.011046969426168677,-0.10805167124842201
-0.009114984634382315,-0.10874966592177338
0.01884777276717449,-0.10522190768522774
0.08538399901608992,-0.08107198133337784
0.08561194528332498,-0.0809910689965608
0.1907690072713113,-0.042791593632724216
0.18881364285541552,-0.04349631811179495
0.1870336517223069,-0.04414005214714768
0.1751215959577689,-0.04841703246855412
0.17316950005065795,-0.049130740282747845
0.17178669203608313,-0.04963713388754062
0.18490627515062288,-0.04491500496165961
0.18098313771623187,-0.046290349487779485
0.18123563560150532,-0.046199217623637615
0.18290581613711893,-0.045622360594504814
0.24155063336131663,-0.024256054334048587
0.23437670158326518,-0.026926724922066374
0.348445566323088,0.044183074446248825
0.34374776412942354,0.03747330376609902
0.34308706308861897,0.03637118431929126
0.3033345592884402,-0.0016675459090089093
0.351561411909849,0.047556720139371136
-0.43750432711220627,0.01914508997336334
-0.4355511459746781,0.019638176822744886
-0.4335979687271657,0.020097087838536976
-0.4316448141980653,0.020356405535757724
-0.43945748188887174,0.018883597290659266
-0.4394725898129545,0.018882132890798608
-0.02097409894514236,-0.10451508391282928
-0.021097962502621144,-0.10447250989727133
-0.04042473344022029,-0.09755071617067454
-0.039021417753396404,-0.09810266769415421
-0.015087667439126432,-0.10661670034089665
0.020370603709510604,-0.10468695009148798
0.020928081598066643,-0.10449452090877419
0.022088902668775494,-0.10410337777742885
0.06573902028733833,-0.08820545768942567
0.06769283982123615,-0.08749648717841231
0.06389696472455965,-0.08887480410441959
0.059789416982941865,-0.09036730612010377
0.061832992681007906,-0.08962782773377723
0.055970983357668536,-0.09175322563555131
0.05802289396829169,-0.0910052751969013
0.053996521214358835,-0.09248367254014263
0.05281062204645108,-0.0929255463116937
0.08331956318345368,-0.08181418852911025
0.08723927930137818,-0.08042944068348368
0.08127467038315182,-0.08255786832040443
0.07547514688633968,-0.08465629119982722
0.07745733037842645,-0.08393897220249326
0.163037466145587,-0.05288288775312046
0.16341355322579837,-0.05271173728543667
0.16545280772559595,-0.051964348910764804
0.15166617041494468,-0.05702023519978107
0.15170510456782899,-0.057005326434739684
0.19086915355853887,-0.04275656938257146
0.19055182881607663,-0.04296566096574342
0.19078305091702322,-0.04283019190005903
0.17131867065212425,-0.04982312781422494
0.16926997021325088,-0.05057096912439247
