"Plane Section: Position[X] (m)","Plane Section: Position[Y] (m)"
-3.5,1.0197665797444163E-4
-3.27,1.0292349754810981E-4
-3.04,1.068081166976019E-4
-2.8099999999999996,1.1351147961390938E-4
-2.58,1.2358663103039695E-4
-2.35,1.3830991756623153E-4
-2.12,1.593063323019112E-4
-1.89,1.89926326243736E-4
-1.66,2.3541483476559273E-4
-1.43,3.0521937223849184E-4
-1.2,3.825570548935942E-4
-1.176,4.2472650569768593E-4
-1.1520000000000001,4.399638421729756E-4
-1.128,4.591244794378603E-4
-1.104,4.767686512593076E-4
-1.08,4.958849788651071E-4
-1.056,5.186092151486239E-4
-1.032,5.409500029835929E-4
-1.008,5.654648204366296E-4
-0.984,5.918990813575369E-4
-0.96,6.205797108707927E-4
-0.9359999999999999,6.525067064900479E-4
-0.9119999999999999,6.846357407743326E-4
-0.8879999999999999,7.216189984793445E-4
-0.8639999999999999,7.610768697883855E-4
-0.8400000000000001,8.047862573135674E-4
-0.8160000000000001,8.53264121785436E-4
-0.792,9.033625576395101E-4
-0.768,9.608478519581142E-4
-0.744,0.0010237739670582418
-0.72,0.0010952973403546653
-0.6960000000000001,0.0011708235392681374
-0.6719999999999999,0.0012579540573028456
-0.648,0.0013547352928873786
-0.6240000000000001,0.001465545675235771
-0.6000000000000001,0.0015843696938115468
-0.5759999999999998,0.0017335534861479887
-0.552,0.0018929773548508689
-0.5279999999999999,0.0021114082901838895
-0.504,0.002423038466163636
-0.48000000000000004,0.003244773776881356
-0.456,0.0031696400371392327
0.4799999999999994,0.0032648605852555923
0.45599999999999935,0.003191992968546731
0.5039999999999991,0.002432257872926842
0.5279999999999991,0.002114586970729782
0.551999999999999,0.0018878914431980486
0.5759999999999992,0.0017327444251791675
0.5999999999999991,0.0015863785800234009
0.623999999999999,0.0014658703088145913
0.6479999999999991,0.0013545906756142687
0.6719999999999993,0.001259477703510417
0.6959999999999993,0.0011694909312357765
0.7199999999999991,0.0010950727951770827
0.7439999999999991,0.0010257223806283814
0.7679999999999991,9.619503883689846E-4
0.7919999999999991,9.042751619067939E-4
0.8159999999999992,8.52450663404101E-4
0.8399999999999994,8.055581350902024E-4
0.8639999999999992,7.61888789437621E-4
0.8879999999999992,7.219609926039307E-4
0.9119999999999994,6.851121758015303E-4
0.9359999999999993,6.521183433062544E-4
0.9599999999999993,6.210319418829937E-4
0.9839999999999991,5.921248138036761E-4
1.0079999999999987,5.653618556751947E-4
1.0319999999999991,5.410627421227855E-4
1.0559999999999992,5.178911632055584E-4
1.0799999999999992,4.959321434758297E-4
1.103999999999999,4.7653105856796686E-4
1.1279999999999997,4.580761576035529E-4
1.1519999999999995,4.4212914287999715E-4
1.1759999999999997,4.258303416942626E-4
1.1999999999999997,3.8127290957734E-4
1.4299999999999997,3.0514802135736107E-4
1.6599999999999997,2.356410425600361E-4
1.89,1.8991277531023068E-4
2.1199999999999997,1.5927585437902424E-4
2.3499999999999996,1.382567707793794E-4
2.58,1.2356984924015245E-4
2.81,1.1348585871737743E-4
3.0399999999999996,1.0674571888363931E-4
3.2699999999999996,1.029470628357208E-4
3.5,1.0206769414519346E-4
0.29099344390390813,0.04580178484823259
0.2907540762005587,0.04571282918664395
0.2931394351532603,0.04644527590157111
0.29384880825806725,0.046702282067633966
0.2900519526724389,0.04547443781082061
0.29240949769457364,0.04624283293800313
0.28797113872312846,0.044715839958999
0.29394393294076954,0.046402429275323925
0.2838225568714907,0.04331073352072733
0.28185848262299107,0.0426067258677624
0.2838232518912694,0.043310976078458206
0.28578242616554217,0.043979528956046635
0.27990187051527526,0.041905439729862284
0.2932813175017508,0.046061985577213874
0.27802288608532205,0.041231970041827756
0.27403233701646457,0.03980071343362185
0.2722317974065107,0.03915444802482354
0.2926173418704221,0.04567814945227456
0.2910461849540976,0.044912661132277126
0.2681078886764138,0.037677300757012686
0.27011930413481067,0.03839759051953486
0.26424832588876185,0.0362968320835013
0.26620545316087507,0.03699671529543881
0.2759888965623471,0.04050215646050255
0.2903882551088749,0.044552318430916504
0.28838926454707464,0.04356744281745564
0.2623016479548824,0.035601982398671364
0.26008524327043214,0.034809783257347564
0.25837779651265735,0.0341948403874759
0.2565028176352734,0.03351939583378259
0.2867364153014421,0.04268645731192389
0.2525118559795197,0.032080240949468715
0.25446712390890547,0.03278523266338186
0.2507161092764797,0.03143150331629883
0.24860181492751315,0.030668898051277108
0.2603335519719073,0.03489849262414365
0.2863306112685964,0.04247346269583788
0.2845311818039275,0.04136597085966999
0.24659494352498706,0.02994408414271696
0.24273761396096336,0.028549519193521507
0.2407967077022533,0.027847150817229948
0.2830117626794706,0.040271468152186636
0.24469216539348848,0.029256479466309937
0.2388289092620769,0.027134504695439862
0.28275553340184356,0.040142102997957806
0.28089216205709694,0.03918463658689662
0.2368748249993047,0.026426260884350197
0.23500421940755145,0.025747874002221154
0.22922313408783102,0.023646263829922992
0.2310136118839028,0.024298672973326725
0.27911177330943737,0.03824027708836568
0.27534337005116316,0.03619867990361115
0.2738746123298564,0.0353656492270829
0.48437500000000006,0.001686173398850327
0.4921875,0.002542306413677603
0.22710725675352886,0.022877203089042612
0.22510504920030128,0.022147547235134665
0.23296714369849744,0.025008434623255416
0.2771849606158865,0.03721599759885362
0.27364674108627374,0.03526692235408044
0.4765625,0.0014842010610015735
0.22124942751778515,0.02074031804540129
0.22320182372186168,0.021453199759473754
0.2193134810028644,0.020032682196477674
0.27157827187572875,0.034389109739186824
0.26961460307950613,0.033537637105183836
0.2677593925453909,0.03272730207816087
0.26585140069266966,0.03189242041578276
0.46875,0.001300888540837393
0.2173453345246775,0.019312632990280708
0.2153936192140242,0.018597880536969733
0.26395723715156727,0.03105328862776769
0.4609375,0.001369064240604785
0.2135283223777836,0.017914023863118547
0.26204507172575897,0.0301961309158695
0.26015019664234973,0.0293252112272808
0.25834133027897516,0.028468124040707796
0.45312500000000006,0.0014533071601244066
0.20563868220637554,0.015014118701370831
0.20364180668029386,0.014277796675337583
0.21149083704338223,0.017166594026852947
0.2095399192989408,0.01644965027846266
0.20775560049944183,0.01579123772903263
0.25452467225376973,0.02655007388448212
0.2563831430151921,0.027521013622118583
0.2528464523603378,0.02557843400729612
0.2518121551439026,0.02496531922985047
0.4453125,0.001577620604408635
0.2017386927258654,0.013575159338451912
0.20141741368620808,0.01345643957968799
0.25098126611195953,0.024131409885412885
0.4375,0.0017250060804137029
0.19979012502681506,0.01285175889364616
0.1978606914294665,0.012134609261255426
0.24952633444286942,0.021890154076638805
0.4296875,0.001858674771950483
0.1881011416334344,0.008504699634227317
0.18632369890338868,0.007838432557839744
0.19589329615189466,0.01140411583854874
0.19394488286334743,0.010680291154387591
0.19208569829084526,0.009988801244152749
0.24910018833600256,0.020422865605297675
0.42187500000000006,0.0019981066388084848
0.19004862001993264,0.009231092940565313
0.18450928092908864,0.007163657210905539
0.24969049639387733,0.018524589183401524
0.2507094212738304,0.01657146418340153
0.25,0.017972808608325917
0.4140625,0.0021825568198538293
0.1842066027919137,0.0070507647642995604
0.2523164154303777,0.014618339183401538
0.251953125,0.015082830768360908
0.40625,0.0026525405539903216
0.18221719491344018,0.006301920827537999
0.25390625,0.013511532730000147
0.3984375,0.0028995891834015172
0.18031535492824538,0.005587788007358249
0.17836891068790733,0.004858553407898487
0.1764436688193734,0.004138288966951269
0.25512182767031766,0.012665214183401524
0.3828125,0.003093898709191148
0.37890625,0.00317061848829672
0.375,0.003259981071871293
0.38353474491565426,0.0028995891834015172
0.390625,0.0028995891834015172
0.16669130491855227,4.8023438450137324E-4
0.1660465717930165,2.3569264920619587E-4
0.1744751206043294,0.0034025613425039607
0.17252861421842228,0.0026734974865857243
0.17067485388938347,0.001976310360018784
0.16863674329006623,0.001212232585743523
0.255859375,0.01235817975185272
0.2578125,0.01161163609137581
0.259765625,0.01094421880038498
0.26048007727181166,0.010712089183401514
0.267578125,0.009536134373682508
0.26953125,0.00940266309287711
0.265625,0.009765860699972786
0.37109375,0.0034054474116685446
0.3671875,0.003581202417412467
0.1649209737454522,-1.9440942976678188E-4
0.263671875,0.010072955088362503
0.26171875,0.010447794191604229
0.271484375,0.009299491430748399
0.2734375,0.00912914461981043
0.275390625,0.008841995756606581
0.27576509777326286,0.008758964183401517
0.359375,0.003723353130003962
0.35546875,0.003714657388383641
0.3515625,0.0038446815901940663
0.36328125,0.003726649147134104
0.1628019872290247,-9.880454821173375E-4
0.16081568817725178,-0.0017374234769007223
0.27734375,0.0076681992294376855
0.34375,0.00396734337309544
0.33984375,0.003984585903555941
0.3359375,0.004199157149703523
0.34765625,0.003978763416387844
0.13919972226189672,-0.009187533690503296
0.1396436217405399,-0.009027381946288519
0.1589128446976188,-0.0024568065917028358
0.156968565909812,-0.0031919907228821548
0.15504831387182,-0.003917540594533593
0.2779429450923409,0.006805839183401517
0.287109375,0.005222057644926189
0.2890625,0.0052434223777200525
0.28515625,0.005218012836706168
0.283203125,0.0051329453567689155
0.28125,0.005028616562988246
0.29296875,0.005348220407366106
0.294921875,0.0053944364871403045
0.291015625,0.005298896722335548
0.296875,0.00546858224321694
0.310546875,0.00517872009945528
0.3125,0.005166748838243428
0.30859375,0.0052190447608638415
0.306640625,0.005286552777552534
0.3046875,0.005371088571863053
0.31640625,0.004906790954263209
0.318359375,0.004892463885947199
0.314453125,0.005133933989182908
0.3203125,0.004911773878828843
0.33203125,0.004483075540433378
0.328125,0.0045482512032728375
0.1353299645876755,-0.010587930402312786
0.13728388731776595,-0.00987924278384353
0.13340288483365534,-0.011286274515227075
0.13920258038716962,-0.00919538632487139
0.15307836582518727,-0.0046578462289832735
0.279296875,0.005487442590173725
0.302734375,0.005447565254136676
0.30078125,0.005501986833136751
0.298828125,0.005519604187141147
0.32421875,0.00454950979056019
0.1373051677092027,-0.00993771017669955
0.1359850297954389,-0.010497725841800984
0.13142156512755426,-0.012003783536979593
0.129468237926903,-0.012714107359077171
0.15113162962742466,-0.005386278682040486
0.14928120728173175,-0.006083383777732902
0.14530403067406641,-0.007606220740945611
0.14487969800730913,-0.007780551349642449
0.12761444759050722,-0.013392656947446178
0.1353832998681766,-0.010734467875902636
0.13347286612080905,-0.011478546514581345
0.14724363857335898,-0.006858203449504123
0.14354587140068234,-0.008303013540955237
0.12556410488596112,-0.014141682383681282
0.12351228772522443,-0.014892769537801762
0.13151033029207312,-0.012247663813396339
0.1295788848220517,-0.013018107194145187
0.1414294925951841,-0.009115107252626448
0.1394453731714509,-0.009862453993404064
0.11772085451455414,-0.017014305375017594
0.11971165916999506,-0.016293358525819285
0.12911199314131497,-0.013207394595177072
0.12221287206141684,-0.015371655990434465
0.12175291294633526,-0.01554713984275241
0.13558858715533617,-0.011298490041677909
0.13753792990937816,-0.010577219042884405
0.13366237198161302,-0.011999209569350418
0.11193374084398595,-0.01913932423428722
0.11385414896598836,-0.018431120101922886
0.11580574204372679,-0.017716031816450414
0.12775690261977235,-0.013784048909624652
0.13168003435145859,-0.012713921867851757
0.12972279646353863,-0.013413501165368727
0.10995118239729165,-0.019861899982566343
0.1080006248019156,-0.02057983323234582
0.12573063804478518,-0.014599228460756862
0.12786079205338857,-0.014069482772384321
0.12371641585522825,-0.015453606945580026
0.10615886572649123,-0.021282085693747912
0.125802801446252,-0.014797495769698328
0.12324916566213186,-0.01565342127461928
0.12373169311524289,-0.015495580870998452
0.09626960521338779,-0.02491694519257824
0.0982539595003881,-0.02418632139291927
0.1041078721219464,-0.022038675540627994
0.10205617864946795,-0.02278231089060178
0.10029339053104024,-0.02342802634475594
0.09435070493045584,-0.025616309996699605
0.09240209986086889,-0.026339607766803438
0.09048720704935925,-0.027054470927670417
0.09020571475046361,-0.027160033863266923
0.0885087100657741,-0.027796699615727158
0.08656089540916287,-0.028522169027556138
0.08471984301833894,-0.02921695779696037
0.08063681326975711,-0.030772796836315834
0.08267649910287866,-0.03000397028302424
0.07683457329365898,-0.032184549630367675
0.07887396054591977,-0.03141906679447706
0.07485301360725136,-0.03295296483566516
0.07469764594412004,-0.03301259729198257
0.06910651740618555,-0.035150498236472996
0.07101436858166026,-0.034424807199714615
0.07295599271356726,-0.0336823294616553
0.06712509324965035,-0.03589320344265253
0.06517765400036382,-0.036619704277592174
0.06333228211430099,-0.037293165568196375
0.06127150979707369,-0.03804175367925558
0.059222975242875085,-0.03877846102843527
0.03932190552410628,-0.04554150049957136
0.03757924849427545,-0.04615250298574609
0.05745520760792989,-0.039411968332700366
0.05540625059816744,-0.040158225067611485
0.05341961079061027,-0.04086643892237062
0.03375714334817737,-0.047525299948527576
0.03580919005352397,-0.04678046642030913
0.03963687216649274,-0.04544858351134272
0.04953332414640324,-0.04225363085262527
0.05149057784334068,-0.04155409499002526
0.04760922249128838,-0.042926129809210185
0.043617891123308175,-0.044232250796911
0.04445262343018869,-0.04402088522176474
0.031783859929483176,-0.048262124325801
0.04137134964033359,-0.0449342891726422
0.041746049809433285,-0.044823471681195944
0.04560607771272306,-0.04361770235486794
0.030108076367313878,-0.04889506005625785
0.02624065487593675,-0.050441411690650126
0.02792774408762381,-0.04974029570424254
0.029865432934490357,-0.048987005859782606
0.008438969137215323,-0.05657159257308357
0.009614123491763996,-0.05615900582974069
0.010298952058808911,-0.055929879568069205
0.011046676689943217,-0.055678702907322214
0.005118874328260342,-0.05776207296055625
0.006378688205463004,-0.05730920543608127
0.0028508128688077877,-0.058574978692557456
0.0023867654600987576,-0.05874193548474009
0.006668093421831063,-0.05720609748957647
0.0013278801667796524,-0.05912928086497397
0.02604784782768417,-0.05052567760344831
0.02209047262802352,-0.05193365560816691
0.022499450322836227,-0.05180309878946737
0.012257839656187645,-0.05529953133918603
0.012268887546065213,-0.05529621193808809
0.014322575459016055,-0.05457918065146715
0.003623497659384394,-0.0582975490728096
-0.0012455597954016703,-0.059158536077486584
-0.002386804299058349,-0.058741845539542606
0.0012455458142252454,-0.05915930899582127
-0.0030185315944804853,-0.058513934069315855
0.02407126235484358,-0.05129879068793785
0.019822408691732366,-0.05263873693152682
0.01813234478626231,-0.05321242096250999
0.020215994187747624,-0.05250799492240058
0.016086715582730664,-0.05393972716294026
-0.001020393275148643,-0.05924119694108831
-7.846868063152983E-21,-0.059615681669612494
-0.003622950018686525,-0.058296125513109295
-0.006283916123200597,-0.05734369965378764
-0.005118052637021246,-0.05776014051380793
-0.008440338020024168,-0.05657573476800898
-0.006668986095688249,-0.05720935644333576
-0.01016116855497171,-0.055959897711774
-0.011796349630438093,-0.05540584427308266
-0.010293080406234854,-0.05591358652428867
-0.012256051555489514,-0.05526082200630686
-0.013890973783661305,-0.054705119131113505
-0.01881091110490597,-0.05291440839301259
-0.01811374350758965,-0.05316131227714229
-0.01607574486331136,-0.053909579306740514
-0.015995428456561326,-0.05393916027322823
-0.014315487927725207,-0.05455969596465991
-0.021616906344739895,-0.05198559319973837
-0.020187844416171115,-0.05243065350613732
-0.022067427841332914,-0.05187034053124939
-0.0337625550352796,-0.04754016843610968
-0.03178931027955315,-0.04827709903901017
-0.03141593216805498,-0.0484190394740757
-0.027944573548399264,-0.049786534266048975
-0.02726680667533142,-0.050067922979831765
-0.02310440972575177,-0.05158291157335179
-0.03580459240592981,-0.046767834487813874
-0.03929373873852796,-0.045551752371116826
-0.03757462839753911,-0.04613980937474181
-0.029872081789240897,-0.04900527343742081
-0.02606405940093348,-0.050570218533289704
-0.024073877392859336,-0.05130597544570003
-0.03964937599948311,-0.045482937508910255
-0.04055668408826843,-0.04523080318447596
-0.042199178284665,-0.04484107217928704
-0.041800389036965126,-0.04497276747648422
-0.04365010285908168,-0.04432075181042107
-0.049543533494792624,-0.04228168080578802
-0.04761786951509525,-0.042949887311014345
-0.04561329772106968,-0.043637539164058235
-0.055396900895932945,-0.04013253697276342
-0.053418131986621605,-0.04086237594194945
-0.051496848587322355,-0.04157132371690118
-0.07098289471286026,-0.03433833345898031
-0.06907208093241483,-0.035055884805770245
-0.05743744385996406,-0.039363162838026974
-0.06858048268594402,-0.03523906263610549
-0.06708887791768689,-0.0357937026394078
-0.06514263009532649,-0.03652347689280676
-0.06329627840594236,-0.03719424619600656
-0.0865308111550341,-0.028439513221615913
-0.08469691550318253,-0.029153964969039645
-0.07681133485462827,-0.03212070254615368
-0.07482464837530134,-0.03287503200417553
-0.07292690355014023,-0.03360240764485052
-0.08848003721874877,-0.027717921618794487
-0.06123937397898682,-0.037953461247867734
-0.05919805597058861,-0.03870999589297057
-0.08429046616397098,-0.02931300827703546
-0.08265588255183427,-0.02994732677659101
-0.08061715454138164,-0.030718784925943158
-0.07885589940069267,-0.03136944420757301
-0.09434296867089209,-0.025595054798998144
-0.0923912314498486,-0.02630974705400906
-0.09046832085218803,-0.027002581529261174
-0.09825434221200766,-0.02418737288441446
-0.0962634964818057,-0.024900161591095833
-0.10030679718172048,-0.023464860813451345
-0.10189582912852094,-0.022905180194486695
-0.10207946444198342,-0.02284628807744116
-0.10344103592674042,-0.022414786815052507
-0.10334303216553056,-0.022586529358329943
-0.11393786535134745,-0.018661128972099057
-0.11201741717357322,-0.01936922305213869
-0.1276554842368808,-0.013505404202690443
-0.12950902063408565,-0.012826156922153272
-0.13536323265610178,-0.010679333665829882
-0.13343835670406606,-0.011383732674716566
-0.10812329012101698,-0.020916853414658907
-0.10627102834931701,-0.021590249956233647
-0.10420116838010897,-0.022295004894070485
-0.12536523812179473,-0.014363013905115508
-0.1256110036696136,-0.014270535728152208
-0.11977105165813873,-0.016456538040036082
-0.11778601943915225,-0.017193344527480163
-0.11587892608947797,-0.017917103322415952
-0.11046184857778135,-0.019995492081064926
-0.11005831355782439,-0.020156240416510103
-0.13146062771317074,-0.012111107105063166
-0.1392291252797651,-0.009268317815267674
-0.14122181493684843,-0.008544517596255824
-0.13731589167016478,-0.009967174016234873
-0.12356737800411144,-0.015044128829655324
-0.12180693466077988,-0.01569556327803438
-0.145129403950671,-0.007126437778763679
-0.14335536669666482,-0.007779606187109607
-0.15099882724904012,-0.0050214071592445345
-0.1522071719726344,-0.0045933489532674916
-0.14913642602760968,-0.005685600565516281
-0.14708445149255303,-0.006420840555182068
-0.1529702772713374,-0.004360875378613267
-0.15692524306253494,-0.003072962182504334
-0.1549727689393709,-0.003709982605907771
-0.16028628850926607,-0.0018608790070201047
-0.16012578325821314,-0.0019192981408468041
-0.15902777189295372,-0.002318941594687225
-0.1570106237904823,-0.0030531234620933775
-0.1661467458784758,2.7215303455825363E-4
-0.16491312102846367,-1.728342679321287E-4
-0.16394455376200157,-5.293793459740622E-4
-0.1627974121285675,-9.754754973695014E-4
-0.16080177941767632,-0.0016992094754028307
-0.15888259640778074,-0.002373700101371647
-0.17256352242372586,0.002577587984194666
