"Plane Section: Position[X] (m)","Plane Section: Position[Y] (m)"
3.5,2.7185319200199196E-4
3.2700000000000005,2.754927501683916E-4
3.0399999999999996,2.8597423853391217E-4
2.8100000000000005,3.0166536988993195E-4
2.58,3.2559629422477263E-4
2.35,3.675169513029734E-4
2.1200000000000006,4.2293169411277527E-4
1.8900000000000003,4.966214095807041E-4
1.6600000000000004,6.112992418257059E-4
1.4300000000000002,7.837943079225904E-4
1.2000000000000004,9.668956422883545E-4
1.1760000000000002,0.0010670270752694171
1.1520000000000001,0.001103456178388332
1.1280000000000001,0.0011449049579248824
1.104,0.0011928820129435815
1.0800000000000005,0.0012416389404838908
1.056,0.0012915406209012621
1.032,0.0013459010234725746
1.008,0.0014061298763794199
0.9840000000000002,0.001467894245044661
0.9600000000000001,0.001532430515167581
0.9359999999999999,0.001606498903000874
0.912,0.001684906884429468
0.888,0.0017677821036503841
0.8640000000000001,0.0018613593499758672
0.8400000000000001,0.0019633921194850803
0.8160000000000001,0.002072345976900091
0.7920000000000005,0.002194414998259576
0.7680000000000007,0.0023269420532361354
0.7440000000000005,0.0024735318931627757
0.7200000000000004,0.002643104840426868
0.6960000000000006,0.0028362483265263016
0.6720000000000004,0.00306361657555054
0.6480000000000004,0.0033212799724352867
0.6240000000000001,0.0036350968230005293
0.6036049954891527,0.0040000000000004225
0.6000000000000002,0.004065975989574449
0.5760000000000001,0.0046688442714438935
0.552,0.005453900335645425
0.528,0.006533309656948424
0.504,0.00729433865723551
0.4800000000000001,0.008122378986462234
0.45599999999999996,0.007783876199501974
-0.4800000000000003,0.00810771316991412
-0.45600000000000007,0.007859379080369162
-0.5040000000000003,0.0073670176586891605
-0.5280000000000002,0.006596724141073612
-0.552,0.005452430172659761
-0.5760000000000001,0.00468152000522397
-0.6048520701737253,0.003999999999999131
-0.6240000000000001,0.003636621530998361
-0.6000000000000001,0.004094034551063629
-0.648,0.0033151037326599854
-0.6719999999999999,0.003067802829929944
-0.6960000000000002,0.002837812422879781
-0.7200000000000001,0.002645688552128193
-0.744,0.0024795400126159024
-0.768,0.0023284446673579743
-0.7919999999999999,0.0021967970921799936
-0.8160000000000001,0.002074772297436368
-0.84,0.001962713470732751
-0.8639999999999999,0.0018626804832351787
-0.8879999999999999,0.0017704572935911076
-0.9119999999999999,0.001684227773069126
-0.9360000000000002,0.0016059790750371904
-0.96,0.0015327675502554165
-0.984,0.0014671676769465866
-1.008,0.0014043686631296166
-1.032,0.0013463892790634196
-1.056,0.0012918068850349919
-1.08,0.0012378683933640903
-1.104,0.0011905357849057885
-1.1280000000000001,0.0011444466007576972
-1.1520000000000001,0.0011062722377806443
-1.1760000000000002,0.001067660100510661
-1.2000000000000002,9.65209567106132E-4
-1.43,7.831564585953462E-4
-1.6599999999999997,6.109220281022502E-4
-1.89,4.978280350127405E-4
-2.12,4.2157671904194676E-4
-2.3499999999999996,3.6696216473223315E-4
-2.58,3.269201020150547E-4
-2.81,3.02409189943269E-4
-3.04,2.8565753531364165E-4
-3.2699999999999996,2.752305554180373E-4
-3.5,2.725640517976136E-4
-0.3016387398357666,0.02036746490646716
-0.2999721472706013,0.019760301833347215
-0.2943916112488263,0.017728335267030645
-0.29617366068627404,0.01837713277586557
-0.29228494244239844,0.016961421509491988
-0.2902787646964969,0.016231061333421525
-0.2883792363103637,0.015539517930450912
-0.2864261694166423,0.014828492118972594
-0.28448498714326415,0.014121778974946528
-0.28252003511111207,0.013406416578391183
-0.2805669686085034,0.012695376514900568
-0.3033401135230678,0.02098790321254712
-0.29807297085344336,0.019068675447915538
-0.27869542158779487,0.012014020211201033
-0.3033759615158005,0.02100095582343807
-0.2610363136065921,0.005584948345906634
-0.2590832504031382,0.0048738992204229855
-0.25721463053824334,0.004193590215800673
-0.2766608332389177,0.011273302882242611
-0.2747077657325755,0.010562265575760552
-0.27291500065416235,0.009909517201603518
-0.2708016376086405,0.009140172041054948
-0.26879762987172273,0.008410583582284258
-0.26494244072862483,0.007007044632595764
-0.2630039435573398,0.006301299951239662
-0.30356314741718016,0.021066583075912804
-0.2551771260911848,0.0034517952151261436
-0.2532240602161482,0.002740753427834603
-0.2514347986895576,0.0020892273080558746
-0.26689550582406785,0.0077180885612401755
-0.3036309069087687,0.021087307995014196
-0.2357339099979465,-0.003626990184551977
-0.23759959460993313,-0.0029477495051115524
-0.24731650991087098,5.899440341830172E-4
-0.2493179498380842,0.0013186111495774486
-0.2395526527410835,-0.0022366864472364535
-0.3038029245537312,0.021145142926128672
-0.23174041846930005,-0.005080933879628713
-0.23369347694308146,-0.004369871762882019
-0.22995467978309855,-0.005731175085167545
-0.22783430225512769,-0.006503060127566955
-0.22583544132257927,-0.007230824950424519
-0.24541182817400636,-1.035001288050448E-4
-0.24345877025469673,-8.145637685495555E-4
-0.24152296599327094,-0.0015193397589133189
-0.3039951017514261,0.021208883001911587
-0.21425323918694722,-0.011447662430256961
-0.2161159827864861,-0.010769519004979671
-0.2239281990246952,-0.007925222038700068
-0.2219751338617173,-0.0086362657818374
-0.22004202489826957,-0.009340058430779508
-0.2180690311325449,-0.01005842906982244
-0.3041611855870434,0.021260399788124013
-0.20847466083580102,-0.013551730854664924
-0.21025682810813875,-0.012902762331220688
-0.20435446633582754,-0.015051839108014393
-0.20635073009118224,-0.014324938562500422
-0.21220986130293568,-0.01219163077921238
-0.30438961967303935,0.021332379232581283
-0.2030485848323128,-0.01552738020500808
-0.3046247465022925,0.021404184958572044
-0.19016858303942435,-0.020222025271708795
-0.19072796668539285,-0.020018117028680837
-0.20049195930927718,-0.016459236359487588
-0.2024447534391506,-0.015747448153909046
-0.19856179819720277,-0.01716271758994193
-0.1927740661846321,-0.019272402494679736
-0.19463362476487833,-0.018594732395472283
-0.3050690078357183,0.021549907616096424
-0.30547053033740795,0.021689577868922262
-0.30539041652317894,0.02166431910895637
-0.18486971560666948,-0.022153842324727592
-0.18287619191109222,-0.022880258865168434
-0.18877529960423406,-0.020730254206378626
-0.1869972032103483,-0.021379194861720782
-0.1965863938796271,-0.01788287547940253
-0.30567747923035843,0.021763244394715026
-0.322263664396978,0.028502449661243844
-0.32037315063548116,0.027773072864536785
-0.31582521894678867,0.025819565258464336
-0.316404491065289,0.026104985001641514
-0.33277905886061526,0.031680366537402645
-0.33398212543973915,0.03193775869808594
-0.3281228749110621,0.030457929624991893
-0.32616979890611875,0.029875446399934676
-0.3257445315776294,0.029726649744068693
-0.32421673059809064,0.029201470423315425
-0.33593522214436716,0.03227418613669491
-0.17901115067009027,-0.024288705529080003
-0.17708360304920573,-0.024990934563453054
-0.17315247061407923,-0.026423252528173
-0.1751053058375722,-0.02571157719684392
-0.1712958691386075,-0.027099775352301063
-0.18096405013393113,-0.0235772066504588
-0.30578612084580636,0.02180450768422571
-0.3066392036896782,0.022091254758403317
-0.3065203848929021,0.021912532466466468
-0.32031060273226764,0.02774950505165119
-0.3183575458293959,0.026939956709385725
-0.31445144063159386,0.02521853795918385
-0.3124983894644565,0.024340809308595286
-0.33202903664766115,0.031507275294482454
-0.3300759547681886,0.03099462220471441
-0.3398414346266248,0.032720321413579445
-0.33788832468400704,0.03254125314990772
-0.16924657699335202,-0.027845990186508063
-0.16719193010197975,-0.028594065824580545
-0.16246063022970564,-0.03031775619076324
-0.16338766265907612,-0.02997989367983461
-0.3115890369218487,0.023866083878639997
-0.3085922789909141,0.02268210293672293
-0.3437477012601445,0.032522764081069064
-0.3417945562505672,0.032760534531468856
-0.16542829385293661,-0.02923628957559386
-0.1613968505291494,-0.030705735485380855
-0.31054534069000755,0.023434638892248675
-0.34549589862389085,0.031681436353862905
-0.15167102602809493,-0.03425097490559012
-0.14981755323075227,-0.03492677210236646
-0.15948203978116504,-0.03140337500324891
-0.15752940272942537,-0.032115594664501076
-0.15560479679506073,-0.032817449992727135
-0.3448825810850388,0.029728259751022397
-0.3432729975621272,0.02777499933634161
-0.343748043699228,0.028452212631151604
-0.14571379424882053,-0.03642309140313206
-0.1477656898110988,-0.03567524361727466
-0.14190759351850227,-0.037811394073387336
-0.14395020344562132,-0.0370661577440237
-0.1536238852560588,-0.0335393655087386
-0.13993646419756967,-0.03853035965116985
-0.3417951066390968,0.02621810133998521
-0.34147435133211873,0.025821723016574677
-0.13991946440096548,-0.03853656997198531
-0.13019239782684588,-0.04208643321124238
-0.1283420547668659,-0.04276145628600761
-0.3398679620377418,0.023868462870608426
-0.3387127457358442,0.021915240680009246
-0.3398421827731006,0.023827152181723266
-0.1262870402695133,-0.0435106433061832
-0.13800290223738873,-0.03923743426807468
-0.13605035834558787,-0.039949909817159804
-0.1341282524513867,-0.04065015472520628
-0.13214494337130622,-0.04137396220161221
-0.3382762898312375,0.019962078955823748
-0.12423777891580248,-0.044257933751952055
-0.1204290058220225,-0.0456469636358308
-0.1184310163868488,-0.0463750076032442
-0.3387657212046137,0.018008995122801533
-0.1145700005433958,-0.04778061732698873
-0.1165230793498689,-0.04706961105923581
-0.11265111143874847,-0.04848119627547315
-0.1117414909227523,-0.048813674188750336
-0.12247402279304542,-0.044901272444917664
-0.10686817924946738,-0.0506005450396762
-0.10871351749888988,-0.049921198985728624
-0.33984277366634463,0.01680324205451005
-0.11066591501568371,-0.04920832137986939
-0.09808163052784238,-0.05381450411554184
-0.0989536956138801,-0.0534915356666433
-0.10481096356921013,-0.05135310996825568
-0.10276369225378906,-0.05209806575873577
-0.10099947991890482,-0.05274088663676875
-0.34051503064370237,0.016056017278242258
-0.09697504381684202,-0.054226633095879176
-0.34374922432097177,0.014418237626656226
-0.34179601968460455,0.01536478789647569
-0.09117819731433338,-0.056323823106242406
-0.09295106591213453,-0.05568236572706438
-0.08723606742269209,-0.05775989331615887
-0.08918901773621447,-0.05704853410932401
-0.08539158304881724,-0.05843210550314093
-0.0833280960484451,-0.05917692388771939
-0.08128035372026773,-0.0599127770223345
-0.09505168316400625,-0.054924933963340715
-0.09309642989200982,-0.05562996749982092
-0.0754842415386465,-0.06202057666642722
-0.077466088478362,-0.06130233100983481
-0.3444573339170177,0.014103223921410984
-0.07951485860699715,-0.06055281871708173
-0.0735579080335681,-0.0627187873151272
-0.07160725279299657,-0.06343645053270197
-0.06969541852453559,-0.06413932841620154
-0.06839996372112309,-0.06462057521042439
-0.06392461851921719,-0.06629006455197681
-0.06576328092527968,-0.06561139737044966
0.2787050242152683,0.011943886757356399
0.280576280282412,0.012626042736749296
0.2777605374053097,0.011599503422819343
0.29618224429135875,0.01831193631013665
0.294399854895754,0.017662040175517632
-0.3476555704448607,0.013275783404424178
-0.3457024048521192,0.013758224578374651
-0.06771021683780891,-0.06488351805760731
-0.06375181407879764,-0.06635442504559318
0.26495594608235107,0.006926185118577028
0.2630180404898043,0.006218814574947815
0.2613771588931548,0.00561950596711439
0.261051266186177,0.0055001113939065135
0.2590996411497359,0.004785109813769298
0.25723192796424665,0.004102308989392467
0.27667106338896774,0.011201444786164243
0.2747187946977927,0.010488212095826854
0.27292685933543126,0.009833183390030215
0.29028717589354547,0.01616410477521009
0.2922931274244633,0.01689495168025853
0.286434909085065,0.014760728551025752
0.2883878345538155,0.015472127464466284
0.2844938957902683,0.01405355270764767
0.28252912939297026,0.013337680320479838
0.2980855679664227,0.019003780555790765
-0.35156188903316266,0.012460642871948178
-0.3496087310850829,0.012852212518477658
-0.06186362135883019,-0.06705125846926221
0.2708138748700343,0.00906279775032673
0.2688102560811715,0.008332140298302712
0.26690852783252056,0.007638557461245554
0.2551954673547814,0.0033576452234131684
0.2532431407383938,0.0026445717229368498
0.2514546608116505,0.0019908974798439573
0.2473381348476297,4.8676948338713074E-4
0.24933858827956704,0.0012181477754325946
0.245513549042387,-1.806087569739639E-4
0.23762962559576234,-0.0030740260059506277
0.23958142475633898,-0.0023595029531904713
0.23576530267538376,-0.003757008968165581
0.29998687744524066,0.019695656916387028
-0.35312552723040597,0.012150828134657756
-0.059332634983610355,-0.06796329572642622
-0.05805106133171823,-0.06842195032673153
-0.05981980688284558,-0.06779008332190777
-0.05599878833236789,-0.06916890474553908
-0.054097684838258844,-0.06986916050878825
-0.04428472698423577,-0.07344705965090664
-0.04244969394763619,-0.07412609984213522
0.011017936248015142,-0.08545952549142691
0.01136053758859993,-0.08533678763422572
0.005265223588220138,-0.08754061091095507
0.006845140549432814,-0.08696749681826971
-0.004633416377412253,-0.08777720092807105
-0.0033529390228945574,-0.08823829752811937
-0.0067473715266159915,-0.08701991429205398
-0.005280689942658869,-0.08754514238442199
-0.001598066095238106,-0.08887695515715043
-7.961793306954545E-6,-0.08945799248097755
0.23202769021917502,-0.005129391514204544
0.233726869486027,-0.004505386674060599
0.24543452713191882,-2.0962639187444953E-4
0.24348389649795854,-9.273607855675521E-4
0.2415500289066896,-0.001637459219227313
0.3016658026258671,0.02030667103824449
-0.3574213371501277,0.011591752634246031
-0.35546819179181055,0.011833668494003512
-0.3535150447268681,0.01209587091396907
-0.054023361181796827,-0.06989669457345157
-0.05210180488773576,-0.07061611650424957
-0.05015226858940092,-0.07133685318572316
-0.048237640690050654,-0.07202347890304767
-0.04623821203005618,-0.07273716922445632
-0.040387572987818345,-0.07489380294507784
-0.03835631820358531,-0.07565930068693287
0.01299572875437592,-0.08475720412459517
0.013342996075078953,-0.08463391676468579
0.009086181005508665,-0.08615617243646997
0.007144168811706046,-0.0868590740890473
0.003338540428123301,-0.08823864099056497
0.0015826508820134789,-0.08887694084589438
-0.0071621803234044774,-0.08687263970960321
-0.009209382277179592,-0.08614207837594107
-0.009108883011192725,-0.08617813351378267
0.16343406912500574,-0.030088893104516595
0.16545390355819597,-0.029350424929877852
0.17513311371943086,-0.025831752385334875
0.17522213058105093,-0.025799512634935476
0.17317925936188722,-0.02654062735267576
0.17132258437234543,-0.027216948504077253
0.1692731532240278,-0.027962781484723764
0.167217991110997,-0.02870944130578381
0.1771242487347025,-0.025146390282861107
0.17824545082149812,-0.024761826574030744
0.23177590727302974,-0.0052222098233533345
0.22999398337133453,-0.0058829349388780875
0.227877907719718,-0.006666642443897739
0.22588349453811624,-0.007406630671469504
0.30334395595825614,0.020926390599501368
-0.35937448129688454,0.011364238501594771
-0.038224095785513286,-0.07571061507980534
-0.03455898152039797,-0.07711099602538157
-0.033588090424857574,-0.07749206719571716
0.015060715135974841,-0.08403154575772664
-0.010719270089009289,-0.08562012622036805
0.015437754715088774,-0.08389943075321137
0.016837308768412333,-0.08341978358692921
0.017470231492429166,-0.08320147965982583
0.06574900263575842,-0.06561595891252683
0.06770038848711879,-0.06490030000476313
0.06390919197276465,-0.06629147482708651
0.059804721564876595,-0.06779243412937595
0.061846752626535016,-0.06704871044436822
0.05598845989185589,-0.06918432287819655
0.05803995882886087,-0.06843524118934224
0.05400924224350588,-0.06990169973853715
0.052080270877482175,-0.07060075285599145
0.05012885888148508,-0.0713163399131537
0.04985532539245063,-0.07141735469610846
0.08692028771180885,-0.05799276725790554
0.08541405989745396,-0.05853766112921577
0.07549104659874363,-0.062083055041233175
0.07747391536851966,-0.061367619002250545
0.16142994288522383,-0.030840435616014558
0.16341411551205318,-0.030096346574455844
0.1515417914025849,-0.03447861975541109
0.15171471026797184,-0.03441478607965049
0.17714405791584592,-0.025200829808103793
0.22397824531816662,-0.00810650523047937
0.2220263993335158,-0.008820899601476494
0.22043347805120506,-0.009410659571399749
0.21432202327596908,-0.011680441251174635
0.2161830420965584,-0.010997557720108084
0.2103361907504328,-0.013164613339623826
0.20946653726934583,-0.01349489151930407
0.21228206589648335,-0.012433809929986744
0.3037061026242954,0.021056987272773588
-0.36328076953786476,0.010909834671960978
-0.3613276250527928,0.011141370330324562
-0.03660274084453405,-0.0763335938786027
-0.03260591072355435,-0.07789208964062957
-0.012851779263976886,-0.08488537206134375
-0.011051520836840748,-0.08550936297150599
0.04243588364811632,-0.07413196103745698
0.04427483104663964,-0.07346367313041377
0.04037323728152781,-0.0748982281501315
0.03839824050224202,-0.07564872556967553
0.018890060712363058,-0.08272119474827978
0.07356363612813616,-0.06277830462792945
0.0716084732110359,-0.06348358341628463
0.06969290456776138,-0.06417620175258612
0.04822246342895861,-0.07202558527766076
0.04623085132948425,-0.07276075055172765
0.09120185594434332,-0.056432625516469256
0.09311941720648906,-0.05573692700225423
0.08921156019884079,-0.05715426939982514
0.08768367660433335,-0.057714989150072143
0.08334785132827731,-0.05927499722716312
0.08726033589677046,-0.057870372276805734
0.08129708277306186,-0.0600025293187855
0.07748200734968924,-0.0613646967193575
0.12059434560440789,-0.045833257300444276
0.12049370595656618,-0.04586854209869175
0.11848549685051488,-0.0465685007870444
0.1595132993920353,-0.03153303871580531
0.15756054982885548,-0.03224494987532144
0.15563833625846,-0.03295338051718494
0.15365937416250722,-0.03368065391266583
0.14987553165032685,-0.0351298670425888
0.14577199632649135,-0.0366268022357723
0.1478153632609957,-0.035855515632549004
0.143314932188181,-0.03756580461424447
0.14401912585539106,-0.03729933069921387
0.17517845297997298,-0.025956353589238687
0.17485199647937694,-0.026090256396002674
0.22009699609872369,-0.009534876413265603
0.21813114154734292,-0.01027286713729088
0.20856308216504432,-0.013838477060749414
0.20445305154218427,-0.01536651786908695
0.20644492471676268,-0.014627550996267922
0.20060241030213755,-0.016806525356399708
0.20254698827004675,-0.016072157046144283
0.19873210771254665,-0.017541336821081593
0.30406740249410724,0.021184110432883478
-0.3671870647900809,0.01037208876434794
-0.365233915075251,0.01066579022850572
-0.019372042000001706,-0.08257399761607499
-0.0189101400512597,-0.08273254382303562
-0.021111223990130233,-0.08203446390857565
-0.02101181402933209,-0.08206382612528887
-0.016860828880371527,-0.08344060483266635
-0.03114234623504964,-0.07852294200182808
-0.013035622772330188,-0.084823292172175
-0.015091675415407704,-0.08407285478884874
0.03834420869995733,-0.0756698560403381
0.020129899316819674,-0.08229611761055497
0.02098096922379422,-0.08202293555773243
0.02200202235468263,-0.08170853563813471
0.1048639458938486,-0.05154249559267968
0.10280992670474472,-0.05226890681143642
0.09972221354915978,-0.053334466920357766
0.09897786177486881,-0.0536017318372879
0.09775160307004428,-0.05405152274279376
0.09322616767159857,-0.05569821539762791
0.07952921499241708,-0.060636049279799424
0.11657412128562675,-0.0472536545712942
0.11462591846878184,-0.04797806108384775
0.11304749044718511,-0.048579368969335984
0.10732985881611284,-0.05065987198860016
0.10876861534351134,-0.05011639315893516
0.10624946353192942,-0.051053000786636424
0.12255763045046367,-0.045174811867249455
0.14000742760311485,-0.03882207231477182
0.14198617637216043,-0.038071116654406066
0.1889277900035426,-0.021193078765736253
0.19087980517840972,-0.020479149362722715
0.18715308696345773,-0.021851345841396405
0.19292306452249386,-0.019725629063684347
0.19477575635377983,-0.01902908739677934
