"Plane Section: Position[X] (m)","Plane Section: Position[Y] (m)"
3.5,0.001784403946173711
3.2700000000000005,0.0018064236735386055
3.0399999999999996,0.0018769802125727713
2.8100000000000005,0.001977801896089646
2.58,0.0021414267737834463
2.3499999999999996,0.0023997808398926886
2.1200000000000006,0.0027303295548659814
1.8900000000000001,0.0031784964248348538
1.6600000000000006,0.00392727355894718
1.6477357289646317,0.003999999999999893
1.4300000000000002,0.005242666517880499
1.2000000000000004,0.0065935957315475776
1.1760000000000002,0.007263215550318499
1.1520000000000006,0.007801460558058301
1.1280000000000001,0.008460785692020864
1.104,0.008971421946525084
1.0800000000000005,0.009426075990395456
1.056000000000001,0.009738609422311492
1.0320000000000003,0.01009251908389116
1.0080000000000005,0.010561483203160013
0.9840000000000004,0.01104887150139221
0.9600000000000004,0.011661480151935515
0.9488491331759435,0.011999999999999966
0.9360000000000005,0.012391531565094836
0.9120000000000004,0.013121414939449714
0.8880000000000003,0.01403010418852949
0.8640000000000005,0.015126243084358722
0.8400000000000003,0.01631821423125638
0.8160000000000001,0.017524417410426794
0.7920000000000003,0.018751984382174722
0.7706034865994744,0.019999999999999525
0.7680000000000002,0.020160660588057495
0.7440000000000005,0.021764307870265356
0.7200000000000006,0.023505609902203344
0.6960000000000006,0.025447272184711697
0.6720000000000006,0.02789167149275461
0.6712360525644396,0.027999999999998786
0.6480000000000008,0.031015690749305304
0.6240000000000008,0.03450414959076388
0.6160686163175526,0.035999999999998214
0.6000000000000008,0.0389327282598647
0.5760000000000011,0.043994639298503335
0.575979783270202,0.04399999999999735
0.5520000000000007,0.04969286178369471
0.5440963296638386,0.051999999999996986
0.5280000000000002,0.056986765438728076
0.519511997413766,0.059999999999996
0.5045688299713793,0.06799999999999527
0.5040000000000003,0.06845967413227039
0.495540323200812,0.07599999999999464
0.48841196227409106,0.08399999999999397
0.48181990197028124,0.09199999999999289
0.47999999999999987,0.09589230724496511
0.4779238846341528,0.0999999999999924
0.4765358887063118,0.12166666666665953
0.4776822980041341,0.14333333333332582
0.45599999999999763,0.15200786297632324
0.45148177265614553,0.14333333333332587
-0.5759431337340117,0.043999999999995924
-0.5759999999999996,0.04398496423579171
-0.5440259839593113,0.051999999999995314
-0.5519999999999998,0.04966851335828607
-0.519795506901213,0.059999999999994655
-0.5279999999999998,0.05704506731375668
-0.6158957221896731,0.03599999999999694
-0.624,0.03446527479073863
-0.5999999999999999,0.03891900333077959
-0.5060285517365207,0.06799999999999373
-0.4954773778106786,0.07599999999999316
-0.5040000000000001,0.06948124777521883
-0.67145316315053,0.02799999999999775
-0.6719999999999999,0.027923634798726178
-0.648,0.030995190231410084
-0.48576136442059725,0.08399999999999225
-0.47971841531993165,0.09199999999999162
-0.48000000000000065,0.09165949600455164
-0.696,0.02545877435569323
-0.4768172064017523,0.09999999999999093
-0.72,0.02343340197342439
-0.47402057178219137,0.12166666666665749
-0.744,0.021639717809857347
-0.46394869848516296,0.1433333333333245
-0.4560000000000053,0.14647565937826068
-0.4549397850332224,0.14333333333332432
-0.7689316617506945,0.01999999999999852
-0.7919999999999999,0.018686862042768197
-0.768,0.02005645858393796
-0.8159999999999998,0.017424260170846285
-0.8400000000000002,0.016226022547156653
-0.8640000000000001,0.015115092668300202
-0.8880000000000003,0.014091998777891834
-0.9120000000000001,0.013163053028618123
-0.9469491008700699,0.01199999999999939
-0.9600000000000002,0.011597163551125882
-0.9360000000000002,0.012341627934995967
-0.9840000000000002,0.01096122210318732
-1.008,0.010425416094836128
-1.032,0.00993962057082314
-1.0560000000000003,0.009532425469971169
-1.0800000000000003,0.009198615998159843
-1.104,0.008812414338687945
-1.1280000000000001,0.008476836683910659
-1.1520000000000001,0.008014274755457365
-1.1760000000000002,0.00753874910907395
-1.2000000000000002,0.0067622968130970715
-1.6480192375697373,0.00400000000000008
-1.6600000000000001,0.003927223259097234
-1.4300000000000002,0.005274487498426265
-1.8900000000000001,0.0031940032911008066
-2.12,0.0027299951212009597
-2.35,0.0023879303239061115
-2.58,0.0021530707789475245
-2.8100000000000005,0.001990986586397016
-3.04,0.001872055318495464
-3.27,0.0018055646838153016
-3.5,0.0017938577656659007
-0.30168364133457526,-0.06975007461812391
-0.30001680137482745,-0.07035685016248755
-0.3555042054661724,-0.022733241285763817
-0.35507036636201783,-0.023274210804136483
-0.35808700164922413,-0.0193674459022024
-0.2944365657187531,-0.07238953189976507
-0.2962185720852901,-0.0717406166748634
-0.2923299754347616,-0.07315666087643731
-0.29032386899233753,-0.07388721685392918
-0.28842440740761055,-0.0745789437171854
-0.2864714064732435,-0.07529015068139719
-0.2845302824432505,-0.07599702378652243
-0.28256539143587817,-0.07671255378327475
-0.2806123854878774,-0.0774237601545852
-0.30338475013274996,-0.06912922094494717
-0.2981178111037663,-0.07104888594183648
-0.35230462633337967,-0.027180932886111786
-0.34862152779588185,-0.031087811532415043
-0.35159884796508317,-0.027962999862735823
-0.34660987585352176,-0.03304127988676088
-0.3476932795205483,-0.03195677597199177
-0.3594096378523997,-0.017942257691947038
-0.2787408969554505,-0.07810527709225451
-0.3034313279762716,-0.06911231002174313
-0.34574046949413595,-0.033802469632555496
-0.3445540936963404,-0.03499475577275116
-0.3427688496987848,-0.036948185486357824
-0.3437876868245513,-0.03580845535469947
-0.3616518253477323,-0.0154605874416964
-0.26108237181191185,-0.08453594964656967
-0.2591293678636952,-0.0852471615093476
-0.2572608066179387,-0.08592763150287533
-0.27670636977994345,-0.07884616242960296
-0.27475336459758015,-0.07955737090335549
-0.27296065254664276,-0.08021026489753834
-0.2708473661220571,-0.08097982049888933
-0.26884342911083214,-0.08170960319548888
-0.2649883745951748,-0.08311351188016389
-0.2630499430145922,-0.08381943669629319
-0.30353196576186037,-0.06907846154168897
-0.34183491998560805,-0.03790719764663624
-0.34086486508996616,-0.03890163546526672
-0.338941942475634,-0.040855088676297134
-0.339882135905639,-0.039904919465135934
-0.3633151531916037,-0.01363732114609462
-0.36521921216321074,-0.011553728543749208
-0.2552233672367692,-0.08666960519709598
-0.2532703644728255,-0.08738082031190815
-0.2514811472757438,-0.08803246815423066
-0.2669413701761645,-0.08240227704082856
-0.3035750031737732,-0.06906704205427638
-0.3379293446589181,-0.041860649084646845
-0.3369558210756779,-0.042808552673380504
-0.33492443520385473,-0.044762024395686204
-0.335976540819181,-0.04374259238808083
-0.3672206647891426,-0.009310460995417871
-0.36872266434743006,-0.007646880557438765
-0.23578081053611824,-0.09375020148474109
-0.23764643323762746,-0.09307079077844091
-0.24936436888359545,-0.08880327783317307
-0.24736300109273524,-0.08953214305685786
-0.23959942426697417,-0.09235954344021399
-0.30363904513629636,-0.06904980541225726
-0.33297235638022205,-0.046715482582769155
-0.33402374210078895,-0.045654543225587194
-0.3711260849025093,-0.004447566960541256
-0.37168319529738303,-0.003740125230763355
-0.2317874714140687,-0.09520456372558506
-0.23374044717106493,-0.09449327444918884
-0.23000179509955143,-0.09585497619834457
-0.22788149168827265,-0.09662706480822425
-0.2258826810041869,-0.09735496762607422
-0.24545838784676177,-0.09022577531570182
-0.24350539815489206,-0.0909370263266708
-0.2415696672828342,-0.09164200386427257
-0.3036970545632655,-0.06903770352766614
-0.332070953901491,-0.04762812865411824
-0.33103784671908854,-0.048668937771349015
-0.3741932255608005,1.6655320957817947E-4
-0.22397552515953179,-0.09804960213022831
-0.22202255804059784,-0.0987609151269001
-0.22008950915714542,-0.09946487277575325
-0.2170246082444551,-0.10058110373730939
-0.21811656919580769,-0.10018339116860915
-0.3037726077818666,-0.06902324511516628
-0.33011816347643114,-0.04958867269327785
-0.32908285467656595,-0.0506223964556265
-0.32711204730670634,-0.05257585783908364
-0.3281653708524934,-0.05153633279822535
-0.3750313693774151,0.001210074464607145
-0.21430108683957105,-0.10157347470341221
-0.2161636538441838,-0.10089484631931342
-0.3039496154499073,-0.0689753901141593
-0.32621257428825234,-0.05346090542872299
-0.32511645026870684,-0.05452932345336204
-0.3230815916597558,-0.05648279576835609
-0.3242597734779836,-0.05536059925918874
-0.37726316265408466,0.0040733272084562695
-0.2103049286704338,-0.10302926911135005
-0.20852307539049492,-0.10367909985069587
-0.206399381451911,-0.10445295786716965
-0.20440326038766168,-0.10518025023758035
-0.2122578292743984,-0.10231777346329837
-0.3041188573444456,-0.06893722890360456
-0.3208155096558219,-0.058436307545933555
-0.32230696613290766,-0.057222003705912475
-0.37893672593368255,0.006445369074412699
-0.3802822599824962,0.00798009253057871
-0.20054124939763307,-0.10658900937655888
-0.20249386406889705,-0.10587672855187794
-0.19993256827442255,-0.10681088209506406
-0.3044316239972447,-0.0688544215113614
-0.32035411382161416,-0.058819937233667796
-0.3184012000474618,-0.060057741004755444
-0.3179681087963511,-0.060389918536416384
-0.3155381915143376,-0.06234345827553901
-0.3164483250990091,-0.06152303648828246
-0.3828419997095881,0.01216569925199619
-0.18882527060356075,-0.11086189587435713
-0.1907781079083193,-0.11015022640547559
-0.187047127372105,-0.11151070755398355
-0.18535870541765193,-0.1121263726247266
-0.19861131533852908,-0.10729311393682005
-0.19468368570494468,-0.1087266216176894
-0.19282419152568991,-0.10940446842591725
-0.30497988914232005,-0.06868551111944629
-0.3056980878360448,-0.06835205638605242
-0.30563155272787057,-0.06841799431741119
-0.3144954975042056,-0.06326579157168055
-0.31307785034892066,-0.06429700320706366
-0.3856465772649501,0.015793508165086276
-0.184920048500218,-0.11228647740266416
-0.182926737151924,-0.11301347692311627
-0.1966362769931474,-0.1080142765826794
-0.30578909854040737,-0.06828631916939706
-0.3066837679399099,-0.06778067765417173
-0.30624700948150774,-0.06820441907427917
-0.31254261696891394,-0.06469835205230418
-0.39046795551342034,0.023606831136926316
-0.4058518731300126,0.04704695703052856
-0.4062733360373545,0.04828254809112521
-0.17713468338585192,-0.11512562164582427
-0.17906184444731768,-0.11442233120246836
-0.17320398226580747,-0.11655912378761263
-0.17515689240641424,-0.11584765432737612
-0.17134721696964011,-0.11723519663644157
-0.18101467503441376,-0.11371064328677896
-0.3105896811028405,-0.06580671247539828
-0.30994709589940794,-0.06625066255711172
-0.30863678199602257,-0.06713045666942219
-0.3906524969024697,0.023901428022415145
-0.39519778847704984,0.03142013848485423
-0.3984630238938607,0.035462558126250765
-0.4014331274449107,0.03923370277544352
-0.40827678352244084,0.054859871000460955
-0.45073327953694614,0.14861711835816474
-0.45313020374600704,0.15452921272487755
-0.1692978919721211,-0.11798132124871201
-0.1672432802398142,-0.11872949344639916
-0.16144796306786874,-0.12084051027595616
-0.1634390461089535,-0.12011541262532867
-0.4111055578956472,0.06267285389730776
-0.4470543956915843,0.13299149026052628
-0.4651177591934663,0.1642445735653033
-0.4687531179289503,0.16675198882788056
-0.15172104705184475,-0.12438275144237468
-0.14986769002023614,-0.12505886631522148
-0.15953307179504356,-0.12153792856909934
-0.1575800430111014,-0.1222490722324963
-0.15565502760493288,-0.12294980288707762
-0.1654797527733335,-0.11937201590257351
-0.41408254122879146,0.067588510229245
-0.41640028273921603,0.0704862576545684
-0.43073151378016405,0.1017387040013664
-0.43751255860288374,0.11143351375300559
-0.441839182131298,0.11736559995957369
-0.48432236320415156,0.14862285096144873
-0.47384507536190007,0.1642460630444982
-0.14631724429287865,-0.12635618060242587
-0.14781609607988677,-0.1258080775026349
-0.1536739250312555,-0.12367119366688487
-0.4218921048090201,0.08479456222482097
-0.42269111052713176,0.0861123315291315
-0.48194741207383496,0.13299744540423541
-0.14576546333605928,-0.1265593928401922
-0.1419617381798161,-0.12795449291127142
-0.1440036675417233,-0.1272073880915586
-0.13997426842006389,-0.12868147911724653
-0.4799976227108592,0.11737211240879353
-0.13805773039304273,-0.12938240897597805
-0.1380322527853899,-0.1293917701682119
-0.47949385486081086,0.10174702620388297
-0.13610845515277092,-0.13010385994168067
-0.13418847987283686,-0.13080995546713275
-0.13026236054277068,-0.1322729665020377
-0.12841345144487054,-0.13295192695825575
-0.48439125972001906,0.0897515308962228
-0.12635952672182219,-0.13370410629924628
-0.13228307325061062,-0.13151315844001077
-0.13220809303988018,-0.13154178709621514
-0.09866887619770923,-0.14372647610799943
-0.09899708218896866,-0.14360508308809922
-0.09704663271306765,-0.14431723801236443
-0.09701432128962312,-0.1443288933646448
-0.10692207737761165,-0.14074295957508087
-0.10876978764866604,-0.14007012890379056
-0.10104525639896142,-0.14286099814905187
-0.11271077560552727,-0.138639447718294
-0.1129420578698608,-0.13855645076129552
-0.11072282407606157,-0.1393590062294661
-0.12431102265001763,-0.13445347598824972
-0.12049867650513521,-0.13583269368292744
-0.11849852915263198,-0.13655481183829715
-0.09623153271441079,-0.1446140677003921
-0.10486162045839742,-0.14148662316737537
-0.10110158303559191,-0.1428405730127436
-0.10281028156451294,-0.14222040942538083
-0.11463427152753355,-0.13795151962553817
-0.11658897897469819,-0.13724498560328502
-0.1225458427428648,-0.13509290467376073
-0.0857031780851879,-0.1484481104254481
-0.08543498016003934,-0.14854568128479567
-0.0852843598683227,-0.14860062874327107
-0.09509238218014038,-0.1450310982978759
-0.09313932778653607,-0.1457421716366521
-0.09122312739715502,-0.14644160876415227
-0.08923337560426671,-0.14716474835433954
-0.0872798979384877,-0.1478746593796618
-0.08337423681454668,-0.14929803534905467
-0.08132976259102133,-0.150042865080586
-0.07751610364325383,-0.15143408379110535
-0.07553573378628559,-0.15215638634674927
-0.07956577279608723,-0.15068704107370662
-0.07361439902666427,-0.1528683244049383
-0.07294980562322906,-0.1531201702772793
0.2961399943821552,-0.07186428596775457
0.2943573316173389,-0.07251360431059514
-0.0716716146041656,-0.15360759927971696
-0.06976168169920657,-0.154315696739107
-0.06777101096013549,-0.15504486318514632
-0.06742591475522017,-0.15517339003001554
-0.06582406315452406,-0.15577270533070336
-0.06465788742348741,-0.15624383489903307
-0.0039022923504355173,-0.17819247736379987
-0.0034047091355684234,-0.17837332942695566
-0.0072078790364402436,-0.17699197807007824
-0.0053299938076158465,-0.17767394438582257
-0.0016508306078329398,-0.179012351916491
-0.0016338155899144895,-0.17901857385543438
-0.008562118666693866,-0.17650101943820795
0.021040758741218628,-0.17192781372240548
0.020863261232766342,-0.17199199484283967
0.016753525211600326,-0.17348207243031466
0.018791330705338012,-0.1727424084419568
0.2980429097222075,-0.07117091183158994
0.2932317114427705,-0.07292334449365186
-0.06402041150844588,-0.15654751054263388
-0.0209888623343297,-0.1719951616424779
-0.021513026770552324,-0.1718053242815039
0.01293111165958215,-0.1748721572640763
0.014987907368734114,-0.17412399627083497
0.00902798436059114,-0.17628868824034913
0.01005888178119879,-0.175914547379855
0.010958445354640734,-0.17558854775952787
0.0070865756794985645,-0.17699304886254896
0.005208120220156323,-0.17767554046937223
-6.222179453474088E-5,-0.17959571129728566
-0.011684672342496785,-0.17537212055907075
-0.011082943321541635,-0.17558998555812722
-0.009151076113789687,-0.1762882156634717
0.024655625612581337,-0.17062329477656127
0.025321903129513126,-0.1703827623708623
0.022700677313946857,-0.1713291620958298
0.29994363439560323,-0.07047696203104717
0.2922506652654635,-0.0732808981123228
0.2902453187091885,-0.07401341337552408
0.28639508927376744,-0.0754223917297723
0.2883474304818193,-0.07470938631142901
0.2844544308915391,-0.07613054346148575
0.2824903983558094,-0.07684843343746005
0.2821635497679065,-0.07696818235691799
0.2786712708942116,-0.0782559110196028
0.28054044351140645,-0.07756802744775873
0.27786297350503975,-0.07856037629687204
-0.0637231819736225,-0.15667786595118877
-0.01891651789623433,-0.17274444171167733
-0.022826440360691456,-0.171332768039459
-0.016878440238094223,-0.17348335889466038
-0.028491398548034376,-0.1692825536833752
-0.026778947907277775,-0.16989946436984477
-0.02478036021930503,-0.1706240712840626
-0.030647255005866916,-0.16851208240420926
-0.032536736104328945,-0.16783713609414447
-0.03456372191092995,-0.16711837931532433
-0.032582213095606966,-0.16782136496664712
0.003282369094734918,-0.17837545509942607
0.001527805456363628,-0.17901702861462848
-0.015113556098696999,-0.17412733380332035
-0.013056940370231643,-0.1748762115700403
0.02665589915103171,-0.16990332480452627
0.028566996806016806,-0.1692156137099729
0.08532859836128705,-0.14859535369510918
0.08717326976182607,-0.14792365495667747
0.20593746489945827,-0.10476683478608301
0.20433883361137925,-0.10534519382784772
0.20106006560286424,-0.10654112031595106
0.2024286678365677,-0.1060395583772876
0.30162238089012444,-0.06986489690879412
0.2805525966826937,-0.07760143574984833
0.2796373358451304,-0.07793284922461378
0.2786788304323906,-0.07827669171372181
0.27868442373303626,-0.07829206734475488
0.2781110790987309,-0.07850025657344724
0.2781145225749052,-0.07849887314585047
0.2769655826710313,-0.0788983752236884
0.27753508778046027,-0.07869048070966664
-0.06200550129462827,-0.15743525753591175
-0.028690118712063013,-0.16921194676738494
-0.03606855944921412,-0.16659259504560922
-0.03910802725309168,-0.16554816201967998
-0.038405620267477486,-0.16578906758463102
0.02967086821957496,-0.168819204597725
0.09111746978901378,-0.14649327440662352
0.09154989340521863,-0.14633678375178596
0.08912662466051147,-0.1472134074813588
0.08326734304018515,-0.14934630253316872
0.08122258202780759,-0.15009034455881773
0.07542691493509723,-0.15219936665356787
0.07740811856239525,-0.1514793546662151
0.19435550688543002,-0.1090425068861073
0.19463634515000816,-0.10893854234983709
0.20847961666213094,-0.10390168172568129
0.20853992268381666,-0.10388254310822101
0.2063400031915178,-0.10463177879296193
0.20048052868106037,-0.10676414360195816
0.19855944384963922,-0.10749257569463672
0.30329986071046733,-0.06924369129454488
0.28155703969721113,-0.07725817511326738
0.2808463706171894,-0.07749818432919
-0.05996205925814374,-0.15817510638776933
-0.05610187038668745,-0.15944636832768583
-0.05636973336698275,-0.15935572371028628
-0.05411957816977618,-0.16015530453087545
-0.05219404097150529,-0.1608637901280881
-0.0511814463989389,-0.16124510857675906
-0.03662865853667434,-0.16639913834105818
-0.04221602300622637,-0.16450998875475775
-0.04046196116469464,-0.1650924629386204
-0.04255363465504082,-0.16440591565224558
-0.04442514301876746,-0.1638270399883084
0.032457545576867614,-0.1678208075352242
0.03401617862309743,-0.16726622409691133
0.030523504561670127,-0.16851403323979253
0.07441537166785923,-0.15256992812465386
0.10270906266347624,-0.14228427320988266
0.10475847188092288,-0.14154519444021982
0.09303542235105311,-0.1457986520174721
0.0794580259369139,-0.15073296584432647
0.10681758238729383,-0.1407978355374421
0.10866768971939192,-0.14013159393651056
0.12245881994937785,-0.13519584487956143
0.12041266747308613,-0.1359384156648396
0.11841462777178019,-0.1366663221073766
0.16337885337228436,-0.1202920191621579
0.16138473488340377,-0.12100877293585799
0.16542196179658725,-0.11955522412540948
0.1907477129332396,-0.11040873143048074
0.18878927445596377,-0.11110500446859058
0.18700709898038304,-0.11174273328358461
0.19658689865734313,-0.10822059402621372
0.1751919761535635,-0.11601375799988556
0.17510411776064916,-0.11604465009134753
0.17314677358981778,-0.1167439313089033
0.17128622135774577,-0.11740959435867476
0.16923710331562142,-0.11815628809529391
