"Plane Section: Position[X] (m)","Plane Section: Position[Y] (m)"
-3.5,4.6531185998113735E-4
-3.27,4.6883125305691707E-4
-3.04,4.858873783179172E-4
-2.8099999999999996,5.171049864682646E-4
-2.58,5.63428938771048E-4
-2.35,6.306255587377505E-4
-2.12,7.274713615573038E-4
-1.89,8.679523252234613E-4
-1.6600000000000001,0.00107935227219456
-1.43,0.0014016703594450287
-1.2,0.0017595718935564009
-1.176,0.001969641752527165
-1.1520000000000001,0.0020408480965312527
-1.128,0.0021181422742149758
-1.104,0.0022068522342364866
-1.08,0.002297824693263893
-1.056,0.002402533133679658
-1.032,0.0025084340978211096
-1.008,0.0026262571168836233
-0.9840000000000001,0.0027521399979761234
-0.96,0.0028871368149859613
-0.936,0.0030392815397331354
-0.9119999999999999,0.003198817584999417
-0.888,0.003375462852999095
-0.864,0.003570014283084676
-0.8400000000000001,0.0037804239540571013
-0.8160000000000001,0.004018960202130448
-0.792,0.004271540829125266
-0.768,0.004564523918833522
-0.744,0.004888145617418313
-0.72,0.005251055015467718
-0.6960000000000001,0.005660971157715765
-0.6719999999999999,0.006119755780162729
-0.6480000000000001,0.006654393191870342
-0.6240000000000001,0.007274603976402506
-0.6000000000000001,0.007943656783977585
-0.5760000000000001,0.008810639915482622
-0.552,0.009763114400893808
-0.5479526188820674,0.009999999999998399
-0.528,0.011145586474852066
-0.504,0.012993623387418362
-0.47999999999999987,0.015269588250965211
-0.45599999999999985,0.017588355575589847
0.4800000000000001,0.01528367993491041
0.4560000000000001,0.017334574898806392
0.5039999999999998,0.013059638734475226
0.5279999999999998,0.011152408869359112
0.5479522306275257,0.009999999999999912
0.5519999999999998,0.009761690553525259
0.5759999999999996,0.008812029646080258
0.5999999999999996,0.007952783218653071
0.6239999999999999,0.00726821384664824
0.6479999999999997,0.006651421934310429
0.6719999999999996,0.00613399337775318
0.6959999999999996,0.005658674877849729
0.7199999999999994,0.0052513797083480925
0.7439999999999996,0.004886774045046347
0.7679999999999996,0.004563244319760397
0.7919999999999994,0.004277601198998935
0.8159999999999995,0.004020097406248915
0.8399999999999996,0.003781480997014307
0.8639999999999994,0.0035703911445138306
0.8879999999999995,0.003377913065993843
0.9119999999999996,0.003199865556188285
0.9359999999999995,0.0030381695569859785
0.9599999999999995,0.0028901527385980516
0.9839999999999993,0.002752015779759978
1.007999999999999,0.002626493191486148
1.0319999999999994,0.002508534805271364
1.0559999999999994,0.002400770443221469
1.0799999999999994,0.002297583752832266
1.1039999999999992,0.0022049799866119095
1.1279999999999997,0.002118446020425453
1.1519999999999997,0.002045383143119188
1.1759999999999997,0.0019699370902771813
1.1999999999999997,0.001757556488519006
1.4299999999999997,0.001401611598530448
1.6599999999999997,0.0010795216020262962
1.89,8.676549906556981E-4
2.1199999999999997,7.272062784738742E-4
2.3499999999999996,6.305021186649085E-4
2.58,5.631710058678163E-4
2.81,5.168578174246357E-4
3.0399999999999996,4.859903087568076E-4
3.2699999999999996,4.6866859656028185E-4
3.5,4.647547453964559E-4
0.3050119277791394,0.011092908214782126
0.305010102742201,0.011092008018937241
0.3751479747388944,0.03875118097270247
0.3759648789126443,0.036798055972702484
0.375,0.03931130549435975
0.30458710984827114,0.010937687738444425
0.3050160788322993,0.011093062555928632
0.3042019809724831,0.010794176220531493
0.37680873828905137,0.03484493097270244
0.3742460268963921,0.04070430597270244
0.3049598287945959,0.011071946883017133
0.30488491742488755,0.011042550731587632
0.3049188042252863,0.011054038245790904
0.30331890084556,0.010461396437111388
0.3017269963569018,0.009877500347339413
0.302848507007467,0.010287741610531583
0.37792827538613655,0.03289180597270247
0.376953125,0.03456603479504547
0.3741886965316561,0.04265743097270244
0.3002691440380807,0.009346827843190103
0.29960053726250463,0.009104491881120164
0.3049442015015399,0.011057517992380278
0.30491170881724916,0.011046968224767306
0.30318973783519576,0.010411782692678522
0.37890625,0.0321050251196143
0.380859375,0.031794837411931315
0.3828125,0.03158146511059742
0.37470017110779924,0.044610555972702456
0.37537957500295843,0.04656368097270243
0.375,0.04531613685611188
0.29856014858518476,0.008729180445866562
0.2970868583167982,0.008193602714866847
0.2966271511211664,0.008025804251798302
0.29747311443858215,0.008334105664755774
0.2952406913288457,0.007519157395860903
0.29293491654942827,0.00667755327214902
0.2944917300313599,0.007245781965449026
0.30507183256035175,0.011096121500671293
0.305176451325003,0.011121340554172812
0.3051800639072648,0.011122241958998528
0.3839581964917381,0.030938680972702495
0.3762319084186143,0.04851680597270244
0.37719316015891224,0.05046993097270243
0.376953125,0.04988275802215933
0.29059673063633934,0.005823560981157476
0.29222677517168677,0.006419058758254692
0.3052704978774058,0.011147537943331873
0.38554455483473105,0.028985555972702432
0.384765625,0.030143103767307968
0.390625,0.02763527154915523
0.3914521413555809,0.027032430972702415
0.37803033291809035,0.052423055972702456
0.3792666146323542,0.0543761809727024
0.37890625,0.053867143041084795
0.2899005410841432,0.005569320400261038
0.28782031021665944,0.004809813602365752
0.30538016660251455,0.01119797251279119
0.388671875,0.02803297557794327
0.38671875,0.028172400804575903
0.3963801370637669,0.02507930597270244
0.39453125,0.025492707921556078
0.392578125,0.02642737663218514
0.38549393817025823,0.06023555597270244
0.3828125,0.058069273543119485
0.38055772466000654,0.056329305972702456
0.326171875,0.026529111412373005
0.32678206463022236,0.027032430972702415
0.328125,0.028369974405889994
0.32885087168076416,0.028985555972702432
0.32462050649140645,0.025079305972702443
0.283705975359384,0.003312904815949034
0.2856507705609811,0.004020952372337402
0.30561868695299477,0.011291023586032407
0.32421875,0.024760839338862466
0.322265625,0.023138544476139968
0.3222529018361783,0.02312618097270244
0.3197945375265304,0.021173055972702463
0.3203125,0.0216188652906121
0.396484375,0.02505954409718665
0.3984375,0.024471112926120087
0.400390625,0.02357636724215122
0.4015555095026399,0.023126180972702443
0.39453125,0.06740931339530427
0.3958267564635568,0.06804805597270248
0.38982513062620117,0.06414180597270247
0.38671875,0.06139793975279266
0.390625,0.06520437983800266
0.330078125,0.030288248201222123
0.33079048021603175,0.03093868097270249
0.33203125,0.03233710120898965
0.33259099061578196,0.03289180597270247
0.2817451304241432,0.0025978747752364154
0.27979237865074036,0.0018859828888756805
0.30610129731470537,0.011455372198697338
0.30663033056413097,0.011630329650046692
0.3068089017146771,0.011744760687517918
0.31736828913620163,0.019219930972702425
0.318359375,0.02003523597117768
0.404296875,0.022456915339424805
0.40625,0.022040245428454626
0.40234375,0.022867805945773548
0.4094419896167645,0.021173055972702463
0.408203125,0.021464272190386588
0.39453125,0.06885263427094934
0.390625,0.06937781245375742
0.333984375,0.03447116690066098
0.3343482046840896,0.03484493097270244
0.27842747024214126,0.001388170282805768
0.30818924799337644,0.012194563278199625
0.30837336215232725,0.01229123511430932
0.31640625,0.018452042430304565
0.31482620127474437,0.017266805972702415
0.41015625,0.021022130087290397
0.416015625,0.02011863672086721
0.41796875,0.01987508912122121
0.4140625,0.020455940949597625
0.38671875,0.069365113590003
0.3828125,0.0689617584021827
0.33573921860537437,0.036798055972702484
0.3359375,0.03718239433484131
0.3368489009614952,0.03875118097270247
0.2779175502916046,0.0012010945354643831
0.2739355596784437,-2.536762356712209E-4
0.27213853226119167,-9.095913142651581E-4
0.31203816002282586,0.015313680972702429
0.3125,0.015646748519560015
0.30924209807809405,0.013360555972702429
0.310546875,0.014308516404182089
0.3086357311753948,0.012589686781932334
0.314453125,0.016974178076480127
0.41210937499999994,0.020749072561176883
0.419921875,0.019587006854265183
0.4213028898534825,0.019219930972702425
0.423828125,0.018674484501049977
0.42578125,0.018442600271130906
0.421875,0.01906817186074152
0.4921875,0.015652060537038326
0.48828125,0.015746436747257623
0.484375,0.015007472984583565
0.49609375,0.014316886139697223
0.37890625,0.06828751396772903
0.3779646839882245,0.06804805597270248
0.375,0.06715102219340961
0.33760350294367136,0.04070430597270244
0.2680242788399581,-0.0024132663242058174
0.27003087464768916,-0.001679734680783777
0.26417477881882934,-0.0038213822205267443
0.2661266639962073,-0.003107096472189521
0.2758879245295397,4.5929162000440255E-4
0.427734375,0.01820521218806659
0.4296875,0.01794266848896053
0.43302892587420316,0.017266805972702415
0.431640625,0.017566357778070578
0.48046875,0.014289517798860292
0.4765625,0.013936138841875181
0.37109375,0.0660011181368945
0.36328125,0.06291572443020173
0.36608275081849906,0.06414180597270248
0.3671875,0.06464334876936903
0.359375,0.06108661399683327
0.35546875,0.058786718973624585
0.35800508594044006,0.06023555597270244
0.3518492736762143,0.056329305972702456
0.3515625,0.05612719878602457
0.34694091811226974,0.052423055972702456
0.34375,0.04928474399885431
0.33984375,0.044687520419438326
0.34300094453461666,0.04851680597270244
0.3397654443303403,0.044610555972702456
0.2622335628312513,-0.004531238478948793
0.435546875,0.016895076407065154
0.4375,0.01667884169927973
0.43359375,0.01714330771396592
0.443359375,0.01609015393151023
0.4453125,0.0159077480905864
0.44140625,0.016302137656272316
0.439453125,0.016475724164662628
0.447265625,0.0157426303666486
0.44921875,0.015621658542459234
0.46875,0.01380345984937971
0.46484375,0.013886091008203864
0.4620312498882413,0.01399924688036956
0.4609375,0.014092354514319824
0.47265625,0.013735977628011032
0.34765625,0.05311935252534296
0.2605070239552413,-0.005161741284231563
0.451171875,0.015462718697790655
0.45216956784959866,0.015313680972702429
0.458984375,0.014347641059257172
0.45703125,0.014681504985809515
0.455078125,0.01487446297726601
0.453125,0.015164312253102231
0.26027038650404594,-0.005248244896131404
0.2583184157612143,-0.005962295555325408
0.2564468332932579,-0.0066470716668937955
0.2524623208647655,-0.008103945656846573
0.25441442899288047,-0.007390272460602858
0.25066879659735475,-0.008758789381505382
0.24855764725453916,-0.009530035479601361
0.24655427056630036,-0.010264451036409373
0.2427029847958445,-0.011675621171365863
0.24076431380973753,-0.012384130908440644
0.2446546699903788,-0.0109607859747008
0.23920066404979382,-0.01295772589131639
0.23879962767673668,-0.013105328023611923
0.23684861661168935,-0.013822015375753739
0.234979470250647,-0.014504411461167195
0.2292049238572773,-0.016623987185318278
0.23099390286316218,-0.015967460149866892
0.22709273487970566,-0.01740318160266771
0.22509366895639898,-0.01814146901353437
0.23294506252533914,-0.015251181064968495
0.22123915477240297,-0.01955174103033517
0.22319053130580058,-0.018836057794197263
0.22081375572827366,-0.01971166892193997
0.219310147706117,-0.020278442857003497
0.21734630463532484,-0.021010315577420734
0.21539221042347842,-0.021718532053654663
0.21352443054357292,-0.0223955666213492
0.21148943191256106,-0.02314982861878183
0.20954273668202536,-0.02387837362836593
0.207759903586842,-0.024540868116708973
0.2059692653384511,-0.02520710511879914
0.20564625803065018,-0.025326978914711182
0.20365373352241123,-0.02607525526359083
0.1997878326990934,-0.02746222619862511
0.19785211395300298,-0.028162107527388076
0.20174743378426485,-0.02676913973196174
0.18809117010924847,-0.03178818703991439
0.18674259315461864,-0.03234376682587774
0.19589911184522685,-0.028932145857686838
0.1941093034752674,-0.02966250354469998
0.191527394789053,-0.030602241454075363
0.19004984330448385,-0.03109255121669533
0.18633496707834757,-0.03251280970800875
0.19397278944189064,-0.02971666474796766
0.19211068751014282,-0.030400139279837535
0.1842399692998753,-0.03336119217030725
0.18224630254776403,-0.03409833494833578
0.1803316968176154,-0.03477739417376831
0.17838171073478748,-0.03549689764131243
0.1766026184440453,-0.03624250378899288
0.1764836219673702,-0.03629176461177414
0.16566518176278194,-0.04053553716852566
0.16676450517048116,-0.04004116485826896
0.17453868299629988,-0.03709235809860691
0.1725963584420097,-0.037832911442053384
0.17073910996980704,-0.03852051497438487
0.1686976891539516,-0.039275498003793735
0.15035158800128587,-0.0454502841685492
0.14909564629234398,-0.04589384237841336
0.14330873694740312,-0.04797177521922483
0.14507972433783672,-0.04731022737988069
0.15313559074649796,-0.04457571536534623
0.15295186708519362,-0.04463057702040558
0.16502518970389882,-0.04080102362279161
0.14117900671631944,-0.0487471861918961
0.13918580742597086,-0.04946958620506958
0.15096659879034535,-0.04525314341058666
0.14703891629996255,-0.046616016856928094
0.1529626611961215,-0.04466023359538107
0.16291180809196892,-0.0416100590231361
0.1609147250086467,-0.04232980813580807
0.13531689710686706,-0.05087231100584718
0.137271288579326,-0.050164911246404625
0.13338857630253453,-0.05156724536117381
0.15182081324725272,-0.04526234323200885
0.15901083792571588,-0.043046323974217184
0.1570755661059697,-0.043806254545874786
0.15515278698710475,-0.04452486132013906
0.13140613580478516,-0.052281675033290925
0.129448931245733,-0.05298134590111642
0.1510882690634022,-0.04558742972645888
0.1492468527862121,-0.04630927879111488
0.15316720179284604,-0.045222204246120244
0.12758976837475733,-0.053645134572570474
0.15120436512851368,-0.04590640103241835
0.14722386468672582,-0.047124158355129106
0.14934279250656418,-0.04657287099697212
0.14536354325391534,-0.0479247292925856
0.11368103856453438,-0.05870478908560098
0.11188068252997913,-0.059313830930558094
0.11770839251894732,-0.057300349535411535
0.11968703322444452,-0.05654598250960822
0.1255389567853049,-0.054392871758159295
0.1234897680430443,-0.05515118043243308
0.12172691763942475,-0.055796001537260435
0.14728712712542485,-0.047297970470730324
0.10989422429522575,-0.06002569209958793
0.11382096947879716,-0.05866024342403931
0.10795166121173094,-0.0607655900894542
0.11579535402595584,-0.05800777418391283
0.10669131183497094,-0.061248841560816905
0.10611339856549816,-0.061477448910764926
0.09428165122724674,-0.06574686972389555
0.0952424789730902,-0.06541587593963026
0.09621522490968099,-0.06508781975212974
0.09821432100520781,-0.06439769873706903
0.09314094110822377,-0.066180773168625
0.10406640547948931,-0.06224503009159512
0.10201548317211422,-0.0629907842002012
0.10025425557879977,-0.06364078716171306
0.08513256545375425,-0.06909558353167401
0.08462278446020846,-0.06927057482037993
0.09235292738875132,-0.06652479072553842
0.09201380565165049,-0.06668350047691678
0.08256214631327172,-0.0700100717976768
0.08134853603637748,-0.07047285760518683
0.08648622972138673,-0.06863730995442793
0.08766776937187296,-0.06826532831979681
0.09048241286789371,-0.06736158223351978
0.08052512162449063,-0.07078620978469202
0.08848376440504958,-0.06804844518932643
0.07924849192121691,-0.07132969470586424
0.0773020925200301,-0.07217685148005944
0.07880103648927846,-0.07153899281339351
0.06896882432706297,-0.07509247283501418
0.0708945180014732,-0.07441580365943243
0.07679451268919138,-0.07239476723882365
0.07285864767156118,-0.07373515937712385
0.07425605972201407,-0.07328551675113587
0.07479465952721029,-0.07311292153485938
0.06698237362294243,-0.0758213677156997
0.06528968153182833,-0.0765490115215371
0.06507270900418326,-0.07665165349132516
0.06379783092471403,-0.07730008872875309
0.06331596437244703,-0.07756861615322053
0.06131452877005443,-0.07848023054259498
0.0600408024088473,-0.07897966726619951
0.0592868098136843,-0.07927412827473299
0.03965406857254769,-0.08581611345768173
0.037607089991544766,-0.08654928007877727
0.047672245328028794,-0.08341956683456314
0.04852166872737103,-0.08317228905079015
0.04475607102132147,-0.08423072254163166
0.043620168167246724,-0.08455879013419028
0.05752436716012069,-0.0799222658445791
0.055484604725141835,-0.08069378446518505
0.05350757253006115,-0.08142839501733297
0.012230612373229323,-0.09551090000994845
0.014134594437036104,-0.09483397217472722
0.03378791368138675,-0.08793012395188123
0.035841943104027885,-0.08719073789446365
0.04154910732409162,-0.08518987387754122
0.04174096701911356,-0.08512979004076376
0.049628170692196404,-0.08283450279687304
0.051586887537703977,-0.08213898690178685
0.045623897432681394,-0.08398694484202035
0.027510556962640924,-0.09016076301318673
0.027907911643595698,-0.09000608972475296
0.02990607752896001,-0.08928886483147408
0.0298640221495848,-0.08930341297094875
0.031801407968626294,-0.08863062037607508
0.008433757973504794,-0.09687693409365453
0.009881139203854422,-0.096354700735687
0.010284501588436152,-0.09620985277098656
0.014280273229646121,-0.09478314129252856
0.005583498154412814,-0.0979006457998895
0.0051151480304134885,-0.09806925850988563
0.006663659921461459,-0.09751280959130328
0.02601561243116115,-0.09075739479326463
0.01574096863621368,-0.09429040358225779
0.0036216731978313387,-0.09860982531329443
0.002385990530810226,-0.09905706072054897
0.0012453020071428451,-0.09947652715378946
0.024829674420248547,-0.09127524978834833
0.016060878900181368,-0.0941890077972717
0.017497153689883145,-0.09371286019794015
-0.0023858403270383974,-0.09905571705786752
-0.001245155793392952,-0.09947374417424468
1.704977241506372E-4,-0.09987081683444574
-0.003621562815451092,-0.0986103209910586
0.02407172123034835,-0.09162033464766002
0.020078595191924495,-0.09286577588176648
0.018124955918313555,-0.09351240244205458
0.02021350290911888,-0.09282143336188509
0.021700835551664858,-0.09241405400604907
0.022118826070501852,-0.09233183932683492
-1.0190214798393016E-4,-0.09989578358238657
-6.603920930483754E-21,-0.099933546709008
-0.00617783921288047,-0.0976843233460113
-0.005114804940670294,-0.09806900637574963
-0.008432741554512319,-0.09687423579637441
-0.006662435330020444,-0.097509589888688
-0.009613464704184253,-0.09645212628710365
-0.012232290105867313,-0.09551555180811841
-0.010286826826167224,-0.09621642371943526
-0.01427658705722562,-0.09477300983798125
-0.015304749029632823,-0.09440807073228863
-0.01692481206925403,-0.09385951981000237
-0.016047806208922183,-0.09415308290538435
-0.019662813114171358,-0.092924624629502
-0.01810998745356755,-0.09347127527543128
-0.021891636738129314,-0.09220588272466732
-0.020184827588817317,-0.09274264799329496
-0.022060117377859345,-0.09217053839362975
-0.027930931775945064,-0.09006933701631092
-0.026319488444960248,-0.09073300182876368
-0.02319529367553059,-0.09187011573154683
-0.033785416193519865,-0.08792326216060732
-0.031808537947059526,-0.08865020983012009
-0.029871957555976957,-0.08932521532004468
-0.02604932855851884,-0.09085002908853426
-0.024074016039313292,-0.09162663958295535
-0.03583090394566878,-0.08716040805722826
-0.039666556977172654,-0.08585042506616518
-0.037611159277768105,-0.08656046035038882
-0.04050205237986102,-0.08557097071088242
-0.04361696569874636,-0.08454999142461411
-0.041747987475460754,-0.08514907858536125
-0.07086281829401782,-0.07432870943211414
-0.06895334573885872,-0.07504994576496077
-0.04454392527990878,-0.08430793727683222
-0.06808212594659517,-0.07539391954554948
-0.06698467502224867,-0.07582769075810031
-0.06505815964650696,-0.07661167946107336
-0.0645896611943902,-0.07680379808774557
-0.08647072776832058,-0.06859471868994634
-0.08583494036282588,-0.0688399399714765
-0.07445096177602334,-0.07307585287670952
-0.0728226178308312,-0.07363616820683638
-0.0884232724315853,-0.06788224486412639
-0.04677837331856755,-0.08380679668912752
-0.04564795167674057,-0.08405303333204849
-0.05541830970745422,-0.08051164040758828
-0.054008358826250574,-0.08117529717015487
-0.04969511859174047,-0.08301844063256378
-0.0477464275097115,-0.08362338069636402
-0.06324377611672544,-0.07737028055777771
-0.08463737743583752,-0.06931066868996774
-0.07676532187348226,-0.07231456613467913
-0.07474677748760807,-0.07298136671696556
