"Plane Section: Position[X] (m)","Plane Section: Position[Y] (m)"
3.5,9.202505434878322E-4
3.2700000000000005,9.336873362714157E-4
3.0399999999999996,9.708015329777212E-4
2.8100000000000005,0.0010229428694285881
2.58,0.0011096035255854977
2.3499999999999996,0.0012530375990856247
2.1200000000000006,0.0014420652676539203
1.8900000000000001,0.0017002854470368142
1.6600000000000006,0.00209467611112442
1.4300000000000002,0.0026758422891952
1.2000000000000002,0.003309398928397501
1.1760000000000002,0.003654498961400911
1.1520000000000001,0.0038212640971647368
1.131971733892216,0.003999999999999906
1.1279999999999997,0.004035850623265433
1.104,0.004257676006140014
1.08,0.004517926014402995
1.056,0.004761239990099062
1.032,0.00501248346338155
1.008,0.005288230109873474
0.9840000000000001,0.005549869239377499
0.9600000000000001,0.005832153877814945
0.9359999999999999,0.006142590865933274
0.9120000000000001,0.006472472858847826
0.888,0.00683909130069201
0.8640000000000003,0.007245871302484001
0.8400000000000001,0.007697596542156489
0.8160000000000001,0.008193218028638457
0.7920000000000003,0.008780376665118973
0.7680000000000005,0.009422798520355644
0.7440000000000002,0.010136542795953149
0.7200000000000004,0.010910800883238779
0.6960000000000002,0.011760212514334026
0.6912692274238723,0.011999999999999747
0.6720000000000002,0.012956712109899552
0.6479999999999999,0.014279291714598564
0.6240000000000001,0.01576649002771863
0.6000000000000001,0.01762642796912397
0.5770880060295975,0.019999999999998887
0.5760000000000003,0.0201244282544024
0.5520000000000004,0.02303346754508506
0.5280000000000005,0.02581249445833066
0.5092166009863401,0.027999999999998644
0.5040000000000004,0.028642710397227877
0.4800000000000004,0.03322540628670906
0.4707557457589814,0.03599999999999787
0.4560000000000006,0.04054568853569582
-0.47024960811755023,0.035999999999996146
-0.48,0.033235481561665586
-0.5093693553519767,0.027999999999997006
-0.5279999999999998,0.02583631755448875
-0.504,0.028657303986494936
-0.45599999999999974,0.03980023829084583
-0.5519999999999999,0.023067039805113286
-0.5775737163621241,0.019999999999997783
-0.6000000000000001,0.01763519877161457
-0.5759999999999998,0.02018273776732846
-0.6240000000000002,0.01575158003132484
-0.6480000000000002,0.014241313181688925
-0.6920028624451248,0.011999999999998671
-0.6960000000000003,0.011798837531637664
-0.6720000000000004,0.01298076239294538
-0.7200000000000003,0.010859925959927502
-0.7440000000000002,0.010086689517345645
-0.7680000000000001,0.009386190179502287
-0.792,0.008749452775988684
-0.8160000000000002,0.00817167301744069
-0.8400000000000002,0.007665857511322214
-0.8640000000000001,0.007212932993625739
-0.8880000000000001,0.006803701026401675
-0.9120000000000001,0.006426970820160503
-0.9360000000000002,0.006107565020273787
-0.96,0.00580590551701997
-0.984,0.005513767764190509
-1.008,0.00525747190170008
-1.032,0.004998832577321696
-1.056,0.0047532273783543865
-1.08,0.004521087030104296
-1.104,0.004284446205575727
-1.1364485213814985,0.004000000000000007
-1.1520000000000001,0.0038586928263506714
-1.1280000000000001,0.004077269569052891
-1.1760000000000002,0.0036900641367891484
-1.2000000000000002,0.0033430977893577143
-1.43,0.002689884874953215
-1.6600000000000001,0.0021020810993062104
-1.89,0.001708218192226278
-2.12,0.0014366151941359838
-2.35,0.0012457429006034674
-2.58,0.0011160375631868492
-2.81,0.0010294231647627401
-3.04,9.668675858131736E-4
-3.2700000000000005,9.317176014104451E-4
-3.5,9.251063657606033E-4
-0.30165705222526606,-0.027795593533844386
-0.2999901782460298,-0.02840230478212743
-0.3554783609148335,0.019712156976899913
-0.3546028077372254,0.018679280861518103
-0.35788277527987017,0.02258603166057118
-0.294409902166512,-0.030434880467284764
-0.29619192330871263,-0.029786005671588345
-0.29230329496898577,-0.03120196299411579
-0.2902971702277256,-0.031932468715407655
-0.2883976918174965,-0.03262414937301493
-0.2864446747649696,-0.03333531207447465
-0.28450353906106873,-0.034042153121314554
-0.28253863642819,-0.034757651192833826
-0.28058562359466743,-0.03546883865594433
-0.30324590940869095,-0.027215887802253244
-0.29809117902475574,-0.029094318567167134
-0.3523765447027,0.014772690931822392
-0.3494117824792326,0.010865988255257678
-0.3515730537703665,0.013536094990087413
-0.3593839009433387,0.024362813704486567
-0.27871413109389515,-0.03615034469625481
-0.3033586269044783,-0.02717504466475728
-0.34774811851657567,0.008912609240475983
-0.3462701080236752,0.0069592585694527856
-0.34766752250527977,0.008828037368052833
-0.3610615762547642,0.026492767014497057
-0.26105546389951556,-0.042580627167381896
-0.2591024538733102,-0.043291822339890054
-0.2572338789625909,-0.04397225480841109
-0.27667959651950913,-0.036891209715275076
-0.2747265749885555,-0.03760237329373592
-0.27293385008600607,-0.0382552319987269
-0.2708205415286714,-0.03902472681949472
-0.2688165835025431,-0.03975445180763554
-0.26496149260900315,-0.04115826059620771
-0.26302304346568006,-0.041864137183920264
-0.30345313753833286,-0.027143165235071758
-0.3457147644730463,0.006424226028726366
-0.3444014535351628,0.005005848258709552
-0.34245246493330117,0.0030524256833355736
-0.3437619493298915,0.0043944948584243694
-0.36296675222897545,0.03039930792374843
-0.2551964236057189,-0.04471418463224329
-0.25324341221234636,-0.045425376050269764
-0.25145418850141465,-0.04607700600930058
-0.26691450978085224,-0.04044708504688013
-0.3035079954609308,-0.02712749658536181
-0.34180913198549984,0.0023791819482474287
-0.34057743068957125,0.001099014398592654
-0.33872204658393457,-8.543938861577973E-4
-0.33985631620948487,3.535960674593363E-4
-0.36328915225795144,0.030904564782798294
-0.365361466533496,0.03430592357094902
-0.23575371369077353,-0.0517943601929273
-0.23761933192968593,-0.051114937229675576
-0.24933738882710405,-0.04684775724266624
-0.24733599971024567,-0.04757656390446491
-0.23957233755487228,-0.05040372997121558
-0.3036999379636882,-0.027062676979710838
-0.3379035026596081,-0.001686571152524849
-0.3367647473341605,-0.002807817730321642
-0.3348059486586713,-0.004761241803401593
-0.33595067233260223,-0.003616847129274732
-0.36719447808225236,0.03695827267267126
-0.36808756705253526,0.03821258981096717
-0.23176031464107943,-0.05324855787073349
-0.2337133265991942,-0.05253736800359046
-0.22997463684907143,-0.05389896629358437
-0.22785433262615798,-0.054671052673245964
-0.22585551561000383,-0.05539893810358627
-0.2454313689327967,-0.048270148021862636
-0.2434783592021445,-0.04898134400600057
-0.24154260888541906,-0.04968626814887917
-0.3038251328471863,-0.027024788338628543
-0.33270782847106073,-0.006714687146737053
-0.33399784116888775,-0.005541642614618636
-0.37017667807636956,0.042119158801629135
-0.21427364408183322,-0.05961668354365929
-0.2161363000912534,-0.05893829956392488
-0.22394831163035592,-0.05609344042752767
-0.22199531213725976,-0.05680466452575875
-0.220062275515935,-0.05750865585008978
-0.21808930761241957,-0.05822709751215073
-0.30397616919166454,-0.026980278289208733
-0.33204498985943726,-0.00733448225080074
-0.3305398505545397,-0.008668143155270645
-0.32806697724925893,-0.010621645712265732
-0.3281392322569896,-0.010560015779558745
-0.3710995703887499,0.04454153707462639
-0.37162248160630285,0.0460256295783639
-0.20897287922366498,-0.06154714791622999
-0.21027731948474926,-0.06107202094038528
-0.21223032502207445,-0.06036081344064405
-0.30416567691365093,-0.02692543416492095
-0.33009212913100605,-0.009065626975210616
-0.32618634506487687,-0.012117821666781426
-0.32567340364853337,-0.012575136162552628
-0.3234044354995642,-0.01452860758929049
-0.3242334764901331,-0.013797572492894154
-0.3727435542815247,0.04993205077835293
-0.2084952672840033,-0.06172130545642557
-0.20637158552327556,-0.062495196940500826
-0.20437554133289482,-0.06322270043951947
-0.3043752428363538,-0.0268675152969628
-0.3211264296970193,-0.01648208039580842
-0.32228061518614026,-0.01552494724166888
-0.3750042502820859,0.054826134018068184
-0.20051326572428463,-0.06463073300853897
-0.2024659014142909,-0.06391850984417312
-0.1985832989656745,-0.06533474783518592
-0.30487105259629543,-0.026703639443023945
-0.32032773683360827,-0.01714065292171054
-0.31837480940888174,-0.018434932624705684
-0.31837388165890795,-0.018435625650824655
-0.3156823901234756,-0.020389161584322017
-0.3164218901780516,-0.01978288288892511
-0.37702627226515617,0.05774520471310281
-0.18489168386325877,-0.07032715528542133
-0.18289830049710332,-0.07105395708816473
-0.1907501441003509,-0.06819200488464752
-0.18879742364794433,-0.06890399527682807
-0.18701896623961872,-0.0695519442365097
-0.19660786827992327,-0.06605483314279317
-0.19559566324476393,-0.06642385014614187
-0.1946552305247453,-0.06676705063583487
-0.19279597985463567,-0.06744556619713053
-0.30537986564404984,-0.026543949136983283
-0.30565877121815965,-0.026396733347488946
-0.3055576484587307,-0.02647189530976101
-0.31446900282307894,-0.021339622059918427
-0.3128808398480743,-0.022342714320516585
-0.379405807152321,0.06555806808836646
-0.3814487360558414,0.07337088007390499
-0.38281350613372156,0.07607610891607201
-0.3893049513386722,0.08899707966647835
-0.38532846822050404,0.08118397248469292
-0.3906237297400367,0.09098722898244507
-0.17718235622328662,-0.07313715078266367
-0.179033343408158,-0.07246263462821763
-0.18098612258116398,-0.07175080549296059
-0.27093473891194864,-0.03933833256117662
-0.27282719127973953,-0.03870547829442571
-0.2692304903597418,-0.040015192257609855
-0.30576120098515835,-0.02633113865930359
-0.30665716290890477,-0.025663822623802682
-0.3061626382020096,-0.026249990035694674
-0.3125160680831655,-0.022585986838299738
-0.3943596837599853,0.0968103514648822
-0.17710586095085445,-0.0731650425376325
-0.17317481605928253,-0.0745976007284225
-0.17512763537898826,-0.0738858818429384
-0.1713186335265892,-0.07527527394274315
-0.270982426402381,-0.03946929064774636
-0.2700420524085349,-0.039770599956827975
-0.26912381294453075,-0.04022991005684314
-0.3105631109495357,-0.02368567134566701
-0.3096166411188521,-0.02429633768937417
-0.3086101765886091,-0.024934518498544618
-0.3984345673329047,0.10187669792271664
-0.4012919688302766,0.10462390990975318
-0.412087740528648,0.09681305801209211
-0.4095086604412462,0.08900016417219803
-0.16926997036384256,-0.07602321606052065
-0.1672155179843483,-0.0767718258674942
-0.16142022060112504,-0.0788828970715856
-0.1634112329787225,-0.07815760536492398
-0.2671101962227479,-0.040984473820440896
-0.268384760631938,-0.04053385975289832
-0.2669181167587285,-0.04106792805673746
-0.42969224402138595,0.05159628417020389
-0.4274961916191502,0.05384665992379363
-0.4122957888402996,0.08118808959281015
-0.40624588977209997,0.10959039257137251
-0.41405986589613125,0.0999222823763951
-0.41820403323139355,0.10462649187918821
-0.15169345236790943,-0.0824255440826627
-0.14983969699993924,-0.0831005651147914
-0.15950540251509285,-0.07958051635345828
-0.157552495123021,-0.08029199337702032
-0.15562763014281022,-0.08099313711391931
-0.16545194449160894,-0.07741422194382566
-0.2671165613825088,-0.04100195364870262
-0.4335991245997056,0.047466254124897814
-0.4312117688000578,0.04994097713644353
-0.42578507730685944,0.05760052459353236
-0.4257192792367755,0.057752638687619165
-0.4140629646883565,0.07962499577222204
-0.4098081747530221,0.11243771017224599
-0.421695531078614,0.11243952501814275
-0.14573549269702513,-0.08459566108760455
-0.14778748308943546,-0.08384807386166937
-0.14192915572183218,-0.08598358914499692
-0.14397185940220328,-0.08523861056310052
-0.15364652018990743,-0.08171450762740283
-0.13994123382145224,-0.0867093338549741
-0.43553935687327905,0.04603538778496653
-0.4375057796073295,0.04481372654267454
-0.42578453540722544,0.061150001745626265
-0.4257968134258458,0.061658900570300476
-0.4218761435214329,0.07517919206077064
-0.13913648538396628,-0.08700362544398543
-0.1302167673124972,-0.09026633577948916
-0.12836651346085173,-0.09094160359007597
-0.4414121999049791,0.04369856423891641
-0.4453186944783743,0.04209689106071779
-0.44526982541585847,0.042130623292708225
-0.4255024192138503,0.06556510567057161
-0.4257844213330301,0.06189719499603799
-0.42330490689843886,0.07337727026680346
-0.1266250973336502,-0.09157805930212581
-0.13802537660825234,-0.08741213349514142
-0.13607375745918462,-0.08812714825652762
-0.13415204996907698,-0.0888284871761469
-0.132168975525318,-0.08955293868892629
-0.44727189136486317,0.041626179047292884
-0.44922510008569966,0.04107795132334608
-0.4254698621213694,0.06556510070007138
-0.42501551432847784,0.0683775314792009
-0.425035404476657,0.06947128450413195
-0.12631236605173723,-0.09169317160601373
-0.45117826009987494,0.040848755276762155
-0.4531314186392851,0.040629219096159686
-0.1242659093821559,-0.09244816398326944
-0.12001637512936997,-0.0940123267603191
-0.12046109331281948,-0.09384806011834523
-0.4550846644304935,0.039838178063492616
-0.4542447166779716,0.04017886846901581
-0.1225038047117677,-0.09309603763372987
-0.11846634532530562,-0.09458500555417541
-0.0989749066518687,-0.10166275876496314
-0.09698985752261868,-0.1023802852549493
-0.10690620386065917,-0.09881794286376461
-0.1087541336654381,-0.09814571507094974
-0.101024484216256,-0.10092252776671849
-0.4570380037497841,0.038434522109985506
-0.11461070938698506,-0.09600538946495976
-0.11656056529140302,-0.09528553252917002
-0.11269438639481869,-0.09671301504336635
-0.1107079830926316,-0.0974368250385671
-0.09506424586101936,-0.10307240484053766
-0.09311078191570712,-0.10378235347276345
-0.1048460654064842,-0.09956248068695724
-0.10186264297567053,-0.10062288377198304
-0.10279416369218203,-0.1002947206896706
-0.4573934493137626,0.03822622416411817
-0.09119755874760066,-0.10448996664556359
-0.0872591247975424,-0.10593618641330713
-0.08921086205706287,-0.10522149600363118
-0.08541488356197338,-0.10660906618197082
-0.08335443926322045,-0.10736224157550929
-0.08130915879734799,-0.10810485724247187
-0.07551456314774016,-0.11021682203295467
-0.07749485296241085,-0.10949429961077393
-0.06551491885103106,-0.11385865813154206
-0.06577673802031614,-0.11376132019706937
-0.45899126916478905,0.037514943962728364
-0.07954438507888185,-0.10874688053578237
-0.0745261719876829,-0.11057727212771461
-0.0728044225376409,-0.1112042353770848
-0.07163617950031625,-0.11162886445883737
-0.0697212293408449,-0.11232318429286006
-0.06772883569650189,-0.1130476195538106
-0.06394124331156732,-0.11444868469042888
0.29616486908518236,-0.029894264286048786
0.2943823963428569,-0.030543985053967937
-0.46094445213668284,0.037135373450220915
-0.07358975868157294,-0.11091923228443153
-0.06188436544172571,-0.11522118886271522
-0.00601801321314582,-0.13545725071959647
-0.005302294560098247,-0.13571662720109529
0.26103942096400545,-0.04272136417249784
0.25914933316428584,-0.04341313851421688
0.27665475476884493,-0.0370077584225754
0.27470210417268437,-0.037719941890403286
0.2729100871293811,-0.038374746649142005
0.2922756827556453,-0.03131112473661424
0.29026976676917293,-0.03204207142153673
0.2864177454883713,-0.0334461232171584
0.28837059546876725,-0.032734516589263685
0.2855347832954934,-0.033767942501943836
0.27868914280483087,-0.03626649030337971
0.2805605047228451,-0.0355846250353564
0.29806773284371496,-0.029201111931354884
-0.4648508171919295,0.036382052377110896
-0.06140160285664424,-0.11539811384413746
0.012960168232163932,-0.13291348397899005
0.01501804755806126,-0.13216830136363666
0.010987737255358811,-0.13363052477164092
0.005237229196261921,-0.1357171343643926
0.006723664617929791,-0.13517813750728477
-0.0033768158782466143,-0.13641574322432898
-0.00718113398064473,-0.13503722637875648
-0.0016227824250117542,-0.13705534465833255
-6.814310213110765E-4,-0.1374005305107451
-0.008414825159319605,-0.13459268931144938
0.01528304186988698,-0.13207247906087008
0.0167854689665721,-0.1315313349671147
0.018824125736430764,-0.13079401084301437
0.2707977045387622,-0.03914678701447646
0.27003482527829803,-0.03942528181746491
0.26494343627143746,-0.04129346261829682
0.2630060081949521,-0.042002146181488176
0.25908763549513264,-0.04343592568751189
0.2572244906889434,-0.04413128460927906
0.29996732083210154,-0.028505665919331794
0.28447710463532705,-0.03415432300929872
0.28251304253791176,-0.03487213155677425
-0.4687571876749382,0.03559317912896518
-0.05858436861761158,-0.11642399036333811
-0.058077269130651,-0.1166068883182127
-0.059844351187460745,-0.11597045078526522
-0.056024192984175866,-0.11735163721031072
-0.05404740210467677,-0.1180756803976744
-0.0540215981842597,-0.11808549191163567
0.00905806453149529,-0.1343328619202569
0.007116253196355029,-0.13503617451535693
0.0033111640127993893,-0.1364162158762775
0.0015562953089477687,-0.13705654551705088
9.658472217729554E-4,-0.13727281621052803
-3.362982826588707E-5,-0.1376403885948549
-0.01303107812700104,-0.13292376292047675
-0.013139754028473222,-0.1328844707081125
-0.011058057971655912,-0.13364022881189128
-0.009125963149097664,-0.1343378797626551
0.019585087022791933,-0.13051973689619786
0.02089815029562398,-0.13004935311689275
0.022415491945333273,-0.12950853877361712
0.18894929408404312,-0.06899334190042096
0.188784169965868,-0.06905241913378814
0.1870036137048944,-0.06969459934297072
0.18487631715600644,-0.07046977222658285
0.18352684230865113,-0.07096601547981748
0.2687950209398199,-0.03988001541499843
0.2668948010628269,-0.040577744752170006
0.25519096550140696,-0.044884017915090585
0.2544891118794186,-0.045150129951443824
0.3016457926665295,-0.027894750130443437
-0.472355662647956,0.03432225840375222
-0.05212529289277505,-0.11879358019818989
-0.050182761397316,-0.11953355122624043
-0.04972328901407351,-0.11971312157725111
-0.02266135478182886,-0.12946348947057526
-0.02097071542716765,-0.13006389979911043
-0.017670332914313747,-0.13125318923196808
-0.016858007512431872,-0.13154581945505456
-0.015089853538395419,-0.13218081509939827
0.024731358581068206,-0.12869377615782768
0.02469938076900062,-0.12870502347785318
0.02273855647786112,-0.12939473923196487
0.08536264052881998,-0.106650381315468
0.08720959224088834,-0.10598495068979485
0.14190687295780363,-0.08610721158833837
0.14189782472399937,-0.08611054170656193
0.1419156349227279,-0.08610406240348444
0.19004814837495956,-0.0686560045568471
0.1848917618305087,-0.07051222628514862
0.18631228690448878,-0.07001510105495276
0.253438125370713,-0.04559489899092242
0.3033245536438345,-0.02727696564494797
-0.472663649819934,0.03420391402205021
-0.04829351105968855,-0.12028987008815628
-0.018898066691011007,-0.13081234395717203
-0.02281179358471464,-0.1294111184954098
-0.024964679413839227,-0.1286663695234091
-0.024776102343877567,-0.12873095159542547
-0.03394078274241769,-0.12555385776060968
-0.034583942836933224,-0.12529248545895433
-0.04438525360344085,-0.1218360875653896
-0.04254811210544649,-0.12250933550623247
-0.0390555887289461,-0.12369133625311454
-0.03840578720342446,-0.12390810545373288
0.0266362020426068,-0.12804241444619802
0.06571979626943422,-0.11378972339665135
0.06767529820002163,-0.113085377628386
0.06387680525125715,-0.11445649835923077
0.059779363490905464,-0.1159767793210782
0.06181565821442647,-0.11521728754438543
0.09115467967254276,-0.10455700920095007
0.09307243375359756,-0.10386184107706642
0.08916455822916654,-0.10527913173243167
0.08330109612507472,-0.10740053547412397
0.08125612526516568,-0.1081440006653398
0.07545911550137946,-0.11024933201737966
0.07743998436800845,-0.10952839980974585
0.13993411875871137,-0.08687465086424721
0.14983434313386493,-0.08327071821688903
0.15169189704634478,-0.08260613829976966
0.14777917579729105,-0.08401010910971571
0.1457246027855878,-0.08475059788310932
0.14395542487787652,-0.08537830729336846
0.18881232668417994,-0.06912981584215527
0.187030838866685,-0.06976943540462
0.2541910267214611,-0.045414629876801865
0.25429533142196314,-0.04535046647366558
0.23768651098085875,-0.051484436987575
0.23963881963813044,-0.05077131360393803
0.23582046418560038,-0.05216268227262699
0.3544723710002232,0.018571026162583472
