"Plane Section: Position[X] (m)","Plane Section: Position[Y] (m)"
-3.5,4.266235057374215E-4
-3.27,4.298784621963888E-4
-3.04,4.455426518557101E-4
-2.8099999999999996,4.74156477107597E-4
-2.58,5.16601838013906E-4
-2.35,5.782128394965921E-4
-2.12,6.669624093925354E-4
-1.89,7.957275495983285E-4
-1.66,9.893657171449884E-4
-1.43,0.0012847148390550702
-1.2,0.001612711649909774
-1.176,0.0018050724098021774
-1.1520000000000001,0.0018701213850777865
-1.1280000000000001,0.0019411385550016343
-1.104,0.002022124856415298
-1.08,0.0021055431911911936
-1.056,0.002201450890490885
-1.032,0.002298228598180317
-1.008,0.0024060173118472974
-0.9840000000000001,0.0025212344903305047
-0.96,0.0026445457609771766
-0.9359999999999999,0.002783347627164024
-0.9119999999999999,0.002929066433659472
-0.8879999999999999,0.003089953747874459
-0.864,0.0032671377593569487
-0.8400000000000001,0.0034588212022897656
-0.8160000000000001,0.0036752581717464485
-0.792,0.0039052517823254846
-0.768,0.004170466876258305
-0.744,0.004462816477034439
-0.72,0.00479234214202748
-0.696,0.005161111796145224
-0.6719999999999999,0.005576874459400199
-0.648,0.006060244905195941
-0.6240000000000001,0.006616392540237554
-0.6000000000000001,0.007225739107782604
-0.5760000000000001,0.008015880849727344
-0.552,0.008831233988737372
-0.5284594152514122,0.00999999999999835
-0.528,0.010024199863582672
-0.504,0.011762887191026576
-0.4799999999999999,0.013901023989264554
-0.4559999999999999,0.0142221771291107
0.4800000000000001,0.013927068470820822
0.45599999999999996,0.013866778997990957
0.5039999999999998,0.011815435528651878
0.5279999999999998,0.010034356502318334
0.5286465691785631,0.00999999999999994
0.5519999999999996,0.008830036832679553
0.5759999999999996,0.008011695240543713
0.5999999999999996,0.0072366689588212775
0.6239999999999997,0.006614695536928475
0.6479999999999995,0.006054456610128079
0.6719999999999995,0.005588591584703121
0.6959999999999995,0.005159272637972841
0.7199999999999993,0.004791572916533588
0.7439999999999994,0.004462673629437459
0.7679999999999996,0.004168045491069692
0.7919999999999994,0.003908974858747196
0.8159999999999994,0.0036757863675916233
0.8399999999999996,0.0034591140362848654
0.8639999999999994,0.0032669465041775714
0.8879999999999995,0.0030910328582235158
0.9119999999999996,0.002929359412513049
0.9359999999999995,0.0027819643223976572
0.9599999999999995,0.002646560609236067
0.9839999999999993,0.002520490846882186
1.007999999999999,0.002405732304410587
1.0319999999999994,0.002297868306148733
1.0559999999999994,0.0021992814190275054
1.0799999999999994,0.002104934656329778
1.1039999999999992,0.0020200796800913263
1.1279999999999997,0.0019410416215786246
1.1519999999999995,0.00187423613314325
1.1759999999999997,0.0018051776595542004
1.1999999999999997,0.0016104278033042048
1.4299999999999997,0.0012844778653351354
1.6599999999999997,9.894430998432496E-4
1.89,7.953843742259565E-4
2.1199999999999997,6.666739063812296E-4
2.3499999999999996,5.780611216695108E-4
2.58,5.163389371532455E-4
2.81,4.739035336487077E-4
3.0399999999999996,4.4556890224772393E-4
3.2699999999999996,4.296902696696853E-4
3.5,4.261307083154679E-4
0.3049209913782108,0.014193359822408073
0.3050050911805106,0.014194258580370404
0.3048117854469659,0.01412485532744798
0.3705126432842468,0.04185431337121647
0.37005669896314636,0.039901188371216485
0.30474796610560995,0.014097871254003315
0.3045869414384693,0.0140408060903102
0.304288857307969,0.013929221541967863
0.3698689510091816,0.037948063371216444
0.3712688493767398,0.043807438371216444
0.37109375,0.04345934044415144
0.30495050423938896,0.014168928505204305
0.3033557606802352,0.01357817405618369
0.30268926725790546,0.013332149071746489
0.30172672996822136,0.012980843492395481
0.37004301271564805,0.03599493837121647
0.3723452964962977,0.045760563371216444
0.3002692269387947,0.012449853818998248
0.29960072288097517,0.012207343721603965
0.30504573160464055,0.014198901642905647
0.30319134431749617,0.013514482218030331
0.37092620215432803,0.0340418133712165
0.373046875,0.04690102917615177
0.3735839608114765,0.04771368837121646
0.37501378461101886,0.04966681337121643
0.375,0.049648532169892436
0.29856060035816945,0.011831467553851883
0.29747375240847806,0.01143586208892222
0.2952405867162436,0.010622556821213377
0.296541712789203,0.01109749466995122
0.29293496084700077,0.009780565972193763
0.2944916722491292,0.010349065600679339
0.30505108624832844,0.014191238047877917
0.37286239296782125,0.03208868837121646
0.37109375,0.03385226882909909
0.3765798392313311,0.051619938371216444
0.3783530449814345,0.05357306337121643
0.376953125,0.05208446289137581
0.3802163215040879,0.05552618837121646
0.37890625,0.054242649816386504
0.2905966467352801,0.00892692318892491
0.2922267595762268,0.009522233477688102
0.29662727775371833,0.011128637943746036
0.3051161362296295,0.01419911692107868
0.3052313345953787,0.014234150354323204
0.3052790664630497,0.014250169612771193
0.373046875,0.03185608325614182
0.3738992391535574,0.030135563371216444
0.3820645011953587,0.057479313371216395
0.380859375,0.056301939284345154
0.3840517614956036,0.059432438371216464
0.3828125,0.05829940714032855
0.28990047032734334,0.008672646793945183
0.2878202649334711,0.007913070372974632
0.30536911863537847,0.014302103906917791
0.375,0.028862349436585964
0.37649841836132364,0.028182438371216464
0.38671875,0.06333868837121645
0.326171875,0.0295758896781661
0.3268732859375712,0.030135563371216437
0.328125,0.031408937517354456
0.3288847657217778,0.03208868837121646
0.324726770927613,0.028182438371216464
0.28370592191609606,0.006416184047327987
0.28565073307938493,0.007124187746668474
0.3056043916511052,0.014396233349091632
0.32421875,0.027795343181487017
0.32242371169145767,0.026229313371216464
0.3198958638341645,0.024276188371216492
0.3203125,0.024667891970866156
0.37890625,0.027898576929627213
0.380859375,0.027623598131725526
0.376953125,0.028081357657147296
0.3823339641745539,0.026229313371216464
0.3857170229368798,0.06355696480629201
0.38531249994412065,0.06371614765747202
0.3828125,0.06419766813416303
0.330078125,0.03339177060844317
0.3307323710937724,0.0340418133712165
0.33203125,0.03555901042433191
0.3324320724753572,0.03599493837121647
0.28174505242037556,0.005701221486982408
0.2797922252761622,0.004989536680500863
0.3060974815434868,0.014559340503370256
0.30663743560735807,0.014735344609781799
0.3068282528659655,0.014846594326008414
0.3173899025420248,0.02232306337121645
0.318359375,0.023102769966363547
0.32226562500000006,0.02611630545944823
0.3828125,0.025671311932789653
0.37890625,0.06405648689573584
0.333984375,0.03790318314004308
0.3340232880396944,0.037948063371216444
0.277916983311831,0.0043057846980476405
0.30820947352619865,0.015296530080586075
0.30838090652173394,0.01539109835762458
0.31640625,0.021633180638667298
0.3146763873854724,0.020369938371216437
0.388671875,0.02428501999944342
0.3886894582396443,0.024276188371216492
0.38671875,0.0246308120416539
0.384765625,0.024716090303951856
0.392578125,0.022724085386562804
0.39397727927980575,0.02232306337121645
0.390625,0.02358550986021218
0.37109375,0.06271508664619938
0.3732308796656,0.06333868837121645
0.375,0.06370704753691003
0.3671875,0.06147708911665012
0.361106951215331,0.059432438371216464
0.359375,0.05868381671381291
0.33528412587415174,0.039901188371216485
0.3359375,0.04091000468369327
0.3366339254931473,0.04185431337121647
0.2774431406921787,0.004133036024544704
0.2739355262082364,0.0028495481214781244
0.27213848929455614,0.0021936591341055454
0.3118884211597607,0.018416813371216454
0.3125,0.018861311923274747
0.3091734649676732,0.016463688371216454
0.310546875,0.017479596937023487
0.3086346831355797,0.015712061203086117
0.314453125,0.020197637211269617
0.396484375,0.021867092673257416
0.3984375,0.021219146109794012
0.39453125,0.022176850409802547
0.400390625,0.020479293023707545
0.40074831277068096,0.02036993837121644
0.36328125,0.06028701431274089
0.35546875,0.05700780741613787
0.35257984749883065,0.05552618837121646
0.3515625,0.05496809628294234
0.33776539103196185,0.043807438371216444
0.3414580969919576,0.04771368837121646
0.33984375,0.04586388837864941
0.34615346920397994,0.051619938371216444
0.34375,0.04950883228931348
0.26802390333850357,6.90897756038674E-4
0.2700306724767198,0.0014239531778835498
0.26417427140600386,-7.168557167822394E-4
0.2661261194938534,-2.4680658068450805E-6
0.27588754936804605,0.003563454766213948
0.404296875,0.019657573553338657
0.40625,0.01934274998838719
0.40234375,0.019985903541623357
0.408203125,0.01894127187993857
0.41015625,0.018633835137702403
0.4921875,0.014274759827520942
0.48828125,0.01416737853565556
0.484375,0.013419807200291085
0.49609210591049824,0.012557438371216454
0.34765625,0.052737971247977904
0.2622332094497878,-0.001427135172877994
0.4116091795612719,0.018416813371216454
0.416015625,0.017650374265968955
0.41796875,0.0175017801629568
0.4140625,0.017963752524363226
0.4245154695127822,0.016463688371216454
0.423828125,0.016573956609931866
0.421875,0.017002420750957155
0.48046875,0.012755389607755026
0.4779808005688444,0.012557438371216454
0.49609374999999994,0.012556157584956807
0.26027005175642526,-0.002144192786121257
0.25976102912033233,-0.0023301288005407347
0.412109375,0.018341674354542342
0.419921875,0.017356935415011113
0.42578125000000006,0.01627116376862779
0.4618405052445121,0.012557438371216454
0.4609375,0.01263107495848075
0.4765625,0.01244353420519878
0.25831801770863266,-0.002858069516370676
0.25644632463378636,-0.0035425417380175552
0.427734375,0.016036279190721058
0.4296875,0.015800791920325023
0.435546875,0.015164822349153739
0.4375,0.014934950105850026
0.43359375,0.015356656613423019
0.431640625,0.015576862656019597
0.439453125,0.01465624538612086
0.4407366966808073,0.014510563371216461
0.45703125,0.013064230879870806
0.453125,0.013488371687957638
0.46875,0.01228087173407184
0.46484375,0.012321580107299121
0.47265625000000006,0.012251179455073454
0.252462035489615,-0.005000029196578519
0.2544138908129941,-0.0042856614250563205
0.25066871919721073,-0.005655444327850999
0.24855715597557365,-0.006425553303271242
0.44335937499999994,0.014216754304425337
0.4453125,0.014082904311742077
0.44140625,0.014430300363519652
0.4503124998882413,0.013667772805419118
0.44921875,0.013756345821329145
0.447265625,0.013908708223473143
0.24655354555255277,-0.007159326679066475
0.24270226094426323,-0.008570500007048471
0.24076342956026753,-0.009278569054561637
0.24465400857095457,-0.007855836341319023
0.23879856289992202,-0.009999270174947587
0.23830142761543244,-0.01018188878847759
0.236848167478951,-0.010717648995226937
0.2349790053042603,-0.011400001633000131
0.2292042200186305,-0.013518921006084475
0.2309933681041062,-0.012862858512974296
0.2270901451843053,-0.014292934074772628
0.2250919896173402,-0.015033722669042049
0.23294418919051763,-0.012145649198838634
0.22123741534928826,-0.016443829606261586
0.223190268464789,-0.01573220324596494
0.21970949817937957,-0.017010453402187167
0.21930524391745995,-0.017161837410366778
0.2173442697680899,-0.017901592427327435
0.21539331448537302,-0.018618433040157048
0.213524829908651,-0.01929353146933003
0.20564380563410778,-0.022217108612314677
0.20525217533579326,-0.022364972136542465
0.21148607495560104,-0.02003747305715236
0.20954008549813075,-0.02076795716222733
0.20775981758655707,-0.02143749943436246
0.20365217257508414,-0.022967834197696237
0.19979498408489949,-0.024378742070427575
0.19785284655817748,-0.025060987944976177
0.2017500725776016,-0.023673257358295532
0.18809408245406622,-0.02869305624273835
0.1863239238586163,-0.029379336313731422
0.19589448737641346,-0.025816307835985992
0.19396397412714686,-0.026589312472116936
0.1931721365466363,-0.02690047201274634
0.19080932099337838,-0.027760466543193467
0.19005847077757357,-0.028013122604833456
0.18608873094522563,-0.029478620808894313
0.1921148826741795,-0.027308532999372526
0.1842339063904322,-0.0302414020655986
0.182250770863078,-0.031007479144810314
0.18033898584871905,-0.03169428822290417
0.17838326642693356,-0.03239803947168828
0.1764700046698347,-0.03315121899710721
0.17588313017297436,-0.03340124370505233
0.16499335235247894,-0.03761041882328854
0.1667464379201359,-0.03688839309917734
0.1745250007276636,-0.03395163397731405
0.17258727927625478,-0.034704834241533436
0.17074027847229398,-0.03542059300995338
0.16869605944782534,-0.036167888024657806
0.15002640330770442,-0.04246550931913784
0.14909689124439016,-0.04279413045741205
0.14330782651068968,-0.044866141416488314
0.1450801418417153,-0.04420824206380465
0.1641057431940875,-0.03799999399118314
0.14117867863177852,-0.04564315238854642
0.13918547337207604,-0.046365536001055536
0.150969735318108,-0.04215862855096737
0.15232468023194282,-0.04176773025678379
0.14704101666041716,-0.043518655151129265
0.16290461771342835,-0.03848717122265193
0.16091484805022999,-0.039227013791253734
0.13531781122962677,-0.0477716901388841
0.13727155626690507,-0.04706251431344324
0.13338923472045555,-0.04846592195096562
0.15105558377818784,-0.04239449524808567
0.1507812971518172,-0.04253756375027399
0.1590021399245491,-0.03991929401475887
0.157061830358342,-0.04066538349226566
0.15514898430022292,-0.04141128112565811
0.13140760372759935,-0.049182575719418024
0.12945110923414815,-0.0498841974763785
0.14923371811867642,-0.04317005919142673
0.14527543983240948,-0.0447448188640878
0.14397046598067004,-0.04532863555556561
0.15317117443770598,-0.04212998659926354
0.12759096083809066,-0.05054527844002101
0.1512102434675264,-0.042819419237027485
0.1472030330527717,-0.04396379151476516
0.14934688898350928,-0.0434809935759611
0.14533057272468414,-0.04489629523525747
0.11188677933546108,-0.05622744936683674
0.11285237580105846,-0.05590326526723699
0.11770542241176651,-0.05418905683477712
0.11968690367657313,-0.0534424941812556
0.12553861178142486,-0.05128879146930919
0.12349056977551508,-0.052050250775700066
0.12172886336532975,-0.052698214976543416
0.14729443589306226,-0.04421491874554508
0.10989350995179666,-0.05692059705870311
0.11383348293935384,-0.05559149147461293
0.10794792292945156,-0.05765218684515785
0.11579869438826475,-0.05491381935508673
0.10637797341966007,-0.05825975501872821
0.10611062092164447,-0.058366684998756885
0.09428652354757086,-0.06265712391497301
0.09443517696153314,-0.06260657744338625
0.09622408026579818,-0.06200901724371778
0.09821582046502668,-0.061298686070401204
0.0939060402726278,-0.06279916744800597
0.10406758750410836,-0.05914514527891489
0.1020159976446899,-0.059889065303421224
0.10025247610635729,-0.06053276570301981
0.09233823448675266,-0.06338128991200231
0.09151927461797217,-0.06376036265458257
0.08256562892470942,-0.066916507795106
0.08185587773375777,-0.06718506793022429
0.08649866975842604,-0.06556835627555278
0.08689374614597001,-0.06544391733614219
0.0836690811440706,-0.06652511586020045
0.08462918425998049,-0.06618502572659893
0.09047126182494862,-0.06422781259740783
0.08052793926952802,-0.06769081880201704
0.08850082591883662,-0.06499218891300548
0.07927722393194775,-0.06821610471067358
0.0773929296409117,-0.06904065707337806
0.07880339244695622,-0.06844233335516858
0.06897671111876282,-0.07201100921783149
0.07089989251584376,-0.0713274376172633
0.07679600205458674,-0.06929572683795612
0.07381246987967342,-0.07034383785145669
0.07286504845125309,-0.07064961297565057
0.0748018464048518,-0.07002953491967466
0.0669945786536911,-0.07275176836237063
0.06586939005507911,-0.0732348824760094
0.06509270995401911,-0.07360347324888498
0.06430496035921773,-0.07401237631115945
0.06334455706361367,-0.07454404152523526
0.06147443685533191,-0.07535473460234636
0.061330920876956366,-0.07542213508603862
0.05928817966078803,-0.07617475950006981
0.039649560644820045,-0.08270059562997098
0.037601640028878364,-0.08343117403143663
0.04766287826625516,-0.08029069864626098
0.04914763101044003,-0.07984132501346569
0.04475931412987236,-0.08112640974813864
0.043620529598068836,-0.08145665075866315
0.057518440173889365,-0.07680284918581222
0.055477463360306116,-0.07757103132874339
0.05349802562030988,-0.07829903270079101
0.01223126367224248,-0.09240956444789931
0.013709420877087347,-0.09188559029579353
0.03378554306763154,-0.08482047834583775
0.03583771109451419,-0.0840759781457882
0.04169062527649347,-0.08203523315673862
0.04173874014676546,-0.0820205393609764
0.04961457369461876,-0.07969401295587976
0.05157388338025733,-0.07900012587560852
0.045621753751131026,-0.08087792272706311
0.027690699914238164,-0.08699206394237848
0.027909620353930582,-0.0869076519691323
0.031801812351489836,-0.08552859901030765
0.028597025074955054,-0.08666218856131098
0.008434072082441383,-0.0937747024908269
0.009655894576032798,-0.09333355067708601
0.01028477364697415,-0.0931074796883705
0.014283121233492936,-0.09168784030801898
0.005444655600492278,-0.09484804795823136
0.005115273362082264,-0.09496656855767571
0.006663972179711907,-0.09441063304616762
0.026013614616499533,-0.0876487734442761
0.02986695847812304,-0.08620834806850075
0.015370523320858136,-0.09132210225236068
0.003621721136722022,-0.09550690327255937
0.0023860278652074875,-0.09595417637760377
0.0012453115354828825,-0.09637351565111887
0.024628717955842448,-0.08824525956126116
0.01606639378161795,-0.09110103091991824
0.01704246900296985,-0.09077521949179104
-0.002385891969356284,-0.09595292829860028
-0.0012451795857632239,-0.0963709101563722
2.0618927759416382E-4,-0.09675469377286393
-0.0036216037061851235,-0.09550736801750556
0.024065199083899258,-0.08849928279733747
0.018130274596631427,-0.09042388370247972
0.019609389101230376,-0.08993342053406937
0.020221759570497967,-0.08974098613055653
0.02149386480696909,-0.08938625279806083
0.02212655829182698,-0.0892499510498214
-1.2504553041392497E-4,-0.09678422768155132
-6.674263112731123E-21,-0.09683055198870671
-0.005907619610028715,-0.09467954283967225
-0.005114886896470142,-0.094966161710132
-0.008433199423271125,-0.09377241672782016
-0.006662733617475641,-0.09440737049212793
-0.00941754163982551,-0.09342030405222834
-0.01223232833204769,-0.09241252478045839
-0.010287481664478338,-0.09311511880054538
-0.014277625615064463,-0.0916727332182192
-0.014883059203963846,-0.09145842087821834
-0.016427370542020335,-0.09093744132084819
-0.016052452125974826,-0.09106271815716972
-0.01893770298467511,-0.0900854107350382
-0.018113677134291156,-0.09037828071621112
-0.021578864609856113,-0.08921659007109042
-0.020188057913416248,-0.08964839090952834
-0.022076446906721794,-0.08911227104147712
-0.027931345834658318,-0.08696734223472113
-0.026264641641200376,-0.0876498320342629
-0.02291625759321993,-0.08886854416147824
-0.03378247887358438,-0.08481205954218582
-0.03180948720189079,-0.0855496854877269
-0.029873962753969904,-0.08622759215754054
-0.026047864789340028,-0.08774287501739816
-0.024070932689745344,-0.08851503575041825
-0.035828533960773276,-0.08405076417896254
-0.039659396990465445,-0.08272762076655393
-0.03760722591419437,-0.08344652112466046
-0.04108718777333813,-0.08225486644612709
-0.04361505107226807,-0.08144159863327263
-0.041744101795423164,-0.082035270369067
-0.0708669324408848,-0.07123688055881272
-0.06895765168385415,-0.07195864385266748
-0.044602774726648815,-0.08118338543140179
-0.06858314275103222,-0.07210843194335319
-0.06517488450219519,-0.07348766182479172
-0.06699164572677738,-0.07274371021219081
-0.08647030809269185,-0.06549043324216014
-0.08574911081452191,-0.06576804697376565
-0.07282737565678034,-0.0705461078272152
-0.07376636624107735,-0.07022189287542739
-0.08842595168596923,-0.06478647365626956
-0.04688747844863062,-0.0806639532708648
-0.04564753903292091,-0.08094876720399824
-0.05543170851130269,-0.07744532091877743
-0.05419648681988381,-0.07800369178172613
-0.04967440311690392,-0.07985839293674109
-0.04773249849928481,-0.08048197865759772
-0.0650672983567171,-0.07353365546160552
-0.06325130385346465,-0.07428783044523372
-0.08463675414033325,-0.06620582380119142
-0.08259811522997827,-0.06700576318207761
-0.08254113414842988,-0.06702813854455673
-0.07676891743838413,-0.06922131246918947
