"Plane Section: Position[X] (m)","Plane Section: Position[Y] (m)"
3.5,0.0011759888510340347
3.27,0.0011930811078107873
3.04,0.0012405833692416095
2.81,0.0013067174061997511
2.58,0.001417618653246214
2.3499999999999996,0.0015987448232849726
2.1200000000000006,0.0018362873741284203
1.8900000000000001,0.0021550153923393283
1.6600000000000004,0.002627286902347831
1.4300000000000002,0.0033934679674477155
1.2775846904013313,0.003999999999999861
1.2000000000000004,0.004315225237376914
1.1760000000000002,0.004755541535418851
1.1520000000000001,0.005006118117038471
1.1279999999999997,0.00535911229238492
1.104,0.00567746230341866
1.0800000000000005,0.00601466742867711
1.0560000000000005,0.006288062606848171
1.032,0.0065683955453519505
1.0080000000000002,0.006887763462503339
0.9840000000000002,0.0072016928701064496
0.9600000000000002,0.007568854905521289
0.9360000000000002,0.007976893639590619
0.9120000000000003,0.008418286734615511
0.8880000000000001,0.008917620869838565
0.8640000000000005,0.009474076772169514
0.8400000000000002,0.010087319669684139
0.8160000000000002,0.010747409674802439
0.7920000000000005,0.011531841762425306
0.7796718855197029,0.012000000000000049
0.7680000000000005,0.012447305459970017
0.7440000000000003,0.013445989637742484
0.7200000000000003,0.01451409681813251
0.6960000000000003,0.015660449488775145
0.6720000000000002,0.01719319265518021
0.6480000000000001,0.018979767840738918
0.6367002690650694,0.019999999999999338
0.6240000000000003,0.021158076740135777
0.6000000000000005,0.023708147517903892
0.5760000000000005,0.02691982438342122
0.5694889138984272,0.027999999999998693
0.5520000000000006,0.030735229223993334
0.5280000000000006,0.03437616326229964
0.5200450820693088,0.03599999999999799
0.5040000000000007,0.039199363866127504
0.4886044933958477,0.043999999999997166
0.48000000000000076,0.04738990947920585
0.46933759165676175,0.05199999999999629
0.4560000000000003,0.05965938777766845
-0.5200556863973383,0.03599999999999663
-0.5279999999999999,0.03438949776904704
-0.48888505234855106,0.04399999999999561
-0.5039999999999999,0.0391955469437657
-0.4680630806866526,0.051999999999994814
-0.4799999999999998,0.047507864746871895
-0.5696559579793068,0.027999999999997284
-0.5759999999999996,0.02694944119097325
-0.5519999999999999,0.030750297409001398
-0.45599999999999985,0.05692556057523832
-0.6,0.023714676544397364
-0.6362752951847553,0.01999999999999822
-0.6480000000000001,0.018934989369631727
-0.6240000000000001,0.021129247119841536
-0.6720000000000002,0.017225637927877763
-0.6960000000000002,0.01571388605369027
-0.7200000000000002,0.014463628784162312
-0.7440000000000002,0.01337941441109066
-0.7785239396888941,0.011999999999999091
-0.792,0.011494033247817071
-0.7680000000000002,0.012400501842515847
-0.8160000000000002,0.010725587437567926
-0.8400000000000003,0.01004843643610544
-0.8640000000000001,0.009427994644757989
-0.8880000000000002,0.008877000171768165
-0.9120000000000001,0.00836330063852023
-0.9360000000000002,0.007923204045141326
-0.96,0.007533342154188109
-0.984,0.0071631490907062435
-1.008,0.006842018922893913
-1.032,0.006532081504370157
-1.056,0.006253276107311774
-1.08,0.005992348016665461
-1.104,0.00570756517158956
-1.1280000000000001,0.00543301200350154
-1.1520000000000001,0.005095922860000162
-1.1760000000000002,0.0048664691690256875
-1.2904618059880426,0.004000000000000093
-1.43,0.003405957620443335
-1.2000000000000002,0.004391906699888369
-1.6600000000000001,0.00263499438666918
-1.89,0.0021662508690394443
-2.12,0.001831013658548199
-2.35,0.0015890290345193286
-2.58,0.001425398983156901
-2.81,0.0013153373486024427
-3.04,0.0012353425892956522
-3.2699999999999996,0.0011905911300978496
-3.4999999999999996,0.001182553526924803
-0.30166489266542756,-0.04176517228016543
-0.29999800679815725,-0.042371874872354276
-0.3593915221448531,0.008083528328384921
-0.3572280427769109,0.004710746453131447
-0.2944177558873974,-0.04440451822074815
-0.2961997669649962,-0.04375561579811968
-0.2923111598583643,-0.045171631446641214
-0.2903050425395758,-0.0459021575612986
-0.2884055693478955,-0.04659385255048533
-0.2864525596445177,-0.047305035434144924
-0.2845114351103889,-0.048011907154733136
-0.2825465471699647,-0.048727445573490104
-0.2805935421961632,-0.04943865462003899
-0.30330334506132123,-0.04116728553010776
-0.29809901506930575,-0.043063908254976364
-0.3554861266940039,0.002865515693093813
-0.35354592774751303,8.038933471746113E-4
-0.35009557936368313,-0.0031029218002439026
-0.35158054336977634,-0.0012053825927302426
-0.3597354436556012,0.008617407165440369
-0.278722052264866,-0.050120167716233184
-0.3033662738239701,-0.04114447290098742
-0.34962780865283494,-0.003588526633104633
-0.34848959417859315,-0.005056309853279888
-0.34657775622003845,-0.007009747998619614
-0.3476750588969729,-0.005879846328023369
-0.3619894612217683,0.012524026378852707
-0.2610634581144132,-0.05655065077505663
-0.2591104546065389,-0.057261863847174244
-0.2572418872371985,-0.05794231702515561
-0.2766875216710927,-0.0508610436666186
-0.2747345044693805,-0.051572219134362676
-0.27294178524150076,-0.0522250934212509
-0.270828486594057,-0.05299461545734223
-0.2688245389523342,-0.05372436896233301
-0.26496946546742156,-0.05512822555697356
-0.2630310275790188,-0.05583413305183506
-0.30348493931014786,-0.04110388123248648
-0.3457222636392703,-0.00789334158001926
-0.344671111489308,-0.008963185293415797
-0.34275302090863075,-0.010916624462801852
-0.3437694633335338,-0.009876014638662611
-0.36329680224855887,0.014005825667066991
-0.36545004039654494,0.016430843201865504
-0.2552044410349846,-0.0586842719886467
-0.2532514360024735,-0.05939548087399141
-0.25146221938903546,-0.060047130320693975
-0.2669224737387796,-0.0544170255657602
-0.30354587561150836,-0.04108590859410362
-0.3418166645003022,-0.011867678475090664
-0.3408145205780528,-0.012870066974879803
-0.33886233693034096,-0.014823511727999089
-0.339863858825584,-0.013817569662455882
-0.3672022439429985,0.018941484893651724
-0.3681477027606988,0.020337535075031384
-0.23576182269228013,-0.06576469901004886
-0.23762743842790685,-0.06508526917439086
-0.2493454292350007,-0.060817907699920626
-0.24734405225097084,-0.06154674767935174
-0.23958042816830744,-0.06437401829572659
-0.30365466663328466,-0.04105200983410737
-0.33791105404755684,-0.01577293585263569
-0.3368857236019439,-0.016776960482190607
-0.3349009286832926,-0.018730410576354786
-0.3359582423249192,-0.017685899773815166
-0.3701802438450392,0.024244118015210765
-0.2317684499652144,-0.06721896897173064
-0.23372144211749962,-0.06650772471628796
-0.22998277796579514,-0.0678693932967567
-0.22786247558543637,-0.06864148473686418
-0.225863657244464,-0.06936936652862163
-0.24543943058147483,-0.062240356807474174
-0.2434864281265554,-0.0629515727710794
-0.24155068550243475,-0.06365651803778558
-0.3038573029253781,-0.040985106963925017
-0.332877074622719,-0.02068386706759266
-0.3340054321342658,-0.01960821766478043
-0.3711074336873662,0.025415496909494854
-0.37318569551889175,0.028150860297840197
-0.21428185735779195,-0.07358730869531532
-0.21614450874516355,-0.07290891202609284
-0.2239564655855141,-0.07006390268630935
-0.222003483041668,-0.07077517332726764
-0.22007044639071494,-0.07147916456788425
-0.21809749332264425,-0.07219764696964345
-0.3040877476634649,-0.04090990818627338
-0.3320526127481849,-0.02147439026271645
-0.3308075410205177,-0.022637331040186615
-0.3750128862091074,0.030285046980825087
-0.2122385525626857,-0.07433147776242098
-0.21149628662471798,-0.074601800672249
-0.3042090123148874,-0.04088097892685447
-0.3300997865939551,-0.023299238009455978
-0.3284497253475307,-0.024590842227365482
-0.3281469136373121,-0.02483832029392862
-0.326194010408999,-0.026192570289475206
-0.3257797192004752,-0.026544404544825977
-0.323471272153558,-0.02849790764645275
-0.3242411484026322,-0.027798512556907632
-0.37657027006975996,0.032057664672883374
-0.20850372153381222,-0.07569259232793744
-0.21028560807861585,-0.07504285291849533
-0.20638011391551242,-0.07646668739599019
-0.2043840261667399,-0.07719407126059344
-0.28848280576505003,-0.04680594816433881
-0.2865396177255223,-0.047544103580535936
-0.2865337351863396,-0.04754645838950207
-0.3044677391860312,-0.040802460040994734
-0.32129987030477497,-0.03045138830293568
-0.3222883118292598,-0.02955974326231033
-0.3783090595337192,0.03596419950268164
-0.20052181375255707,-0.07860227731801608
-0.20247442618197983,-0.07788999031402924
-0.19859174207388197,-0.07930600398882383
-0.2903781432862041,-0.046146495177179045
-0.2903922799648782,-0.04614170141778469
-0.29193777095580586,-0.04571901562491949
-0.2855045179912341,-0.04806172149749199
-0.30495086045831676,-0.040642841687810044
-0.3055177584203723,-0.04044386485723339
-0.3054704573250409,-0.04045817018385095
-0.3203354735261229,-0.03131041235106098
-0.3187787379504705,-0.032404926237981
-0.31581616079668423,-0.03435853647246447
-0.31642964294110365,-0.033871589590620574
-0.3793351666080372,0.0387768677070752
-0.37971905877843515,0.03987068057081911
-0.38126855518514735,0.04377718431105649
-0.1849002842033066,-0.08429884300817825
-0.18290686516881033,-0.08502554683504773
-0.19075873738105373,-0.08216367327666747
-0.1888058536684243,-0.08287521531585434
-0.18702745535861243,-0.08352332655474731
-0.19725287065091965,-0.0797941029193343
-0.19466402471898903,-0.0807392708411386
-0.192804708999275,-0.08141760772629501
-0.2904925068277953,-0.04641691286102622
-0.2848241936490024,-0.04846117070259935
-0.28510566538512466,-0.04841766762212295
-0.30562441291244546,-0.040363320765963585
-0.3183825752249484,-0.03269474639166231
-0.31447676409662695,-0.03537472205554604
-0.3131191222752967,-0.036312103217262685
-0.3828226732671957,0.04685032474636333
-0.1809946864100097,-0.08572239290911647
-0.1794597189271273,-0.08628180216472041
-0.19661643743742754,-0.08002643541524355
-0.2897567673307674,-0.046723942238330755
-0.2886181148995235,-0.047177514779811636
-0.2866678321964644,-0.0478961903217715
-0.30575592692619696,-0.040292464583133555
-0.3066649803244037,-0.039748494065145176
-0.3062097393791588,-0.040219484882327176
-0.312523861604452,-0.036733466761564935
-0.3850872306761909,0.05159030983514613
-0.3888887513588079,0.059403432549639285
-0.39063270663703586,0.06191167605860415
-0.39713433304975704,0.07502978321331027
-0.39412181007668656,0.06721678972017428
-0.39844216949833483,0.08045642941103148
-0.3990585040233612,0.08284259845711932
-0.17711428016211142,-0.08713623278473916
-0.17904188909678542,-0.0864341722077805
-0.17318384303613088,-0.08857045991451148
-0.17513620934606958,-0.0878574970472641
-0.17132763919205563,-0.08924807455287365
-0.3105709124881712,-0.037807534738341864
-0.30988195521648826,-0.038265758423838
-0.3086179959292707,-0.03908039104337207
-0.40012498315239753,0.09065527322890751
-0.1692786015008441,-0.08999498812767232
-0.16722404434624344,-0.09074331019933876
-0.16142872822964363,-0.09285432993824447
-0.16341974160003686,-0.0921290409659862
-0.40248854440433357,0.09846816043566736
-0.15170180347106674,-0.09639654709866477
-0.1498481468892805,-0.09707183940604694
-0.1595138578163789,-0.09355180551511008
-0.1575608573959786,-0.0942630270656668
-0.15563592647234514,-0.09496398971053124
-0.16546045126162656,-0.09138565246899835
-0.4062499283255484,0.10940564731803118
-0.4102945434113436,0.11409443910488322
-0.42187198794491515,0.1273602564249187
-0.14574423349835053,-0.09856773422896983
-0.14779606514003563,-0.09781971107204737
-0.14193839057888077,-0.09995701894533224
-0.14398075944752364,-0.09921112097880636
-0.15365481873635078,-0.09568536631332972
-0.14155320556169249,-0.10009800774546777
-0.44369048437154895,0.09066240834854875
-0.4418267913691163,0.08284960300977076
-0.43145248432948774,0.11409790433391857
-0.1399521590661695,-0.10068740553521
-0.4405277375573047,0.07503689014710299
-0.4375011025396338,0.10223870814337205
-0.4392750280454919,0.09847418529374449
-0.13803575808536234,-0.10138871179034989
-0.13608333523276434,-0.10210151938705458
-0.13416190162841307,-0.1028036103709944
-0.131712064597329,-0.10370021334322437
-0.13217925500715166,-0.10352923664701086
-0.13022852449781686,-0.10424669155009389
-0.1283791587692205,-0.10492439816999859
-0.4429615932660963,0.0672247886570961
-0.1263264836996762,-0.10568000923670326
-0.4453198073084203,0.06435436821859924
-0.12520741485875853,-0.10609666548042873
-0.09718587170243491,-0.11627312400947888
-0.09699497013753654,-0.11634239407890293
-0.4531330827642187,0.05962024208013121
-0.12428180205053943,-0.10643987566006795
-0.1204787829133086,-0.10784470587211414
-0.11848230749147233,-0.10857690731667458
-0.09682412103305028,-0.11640485758530286
-0.09897991071882276,-0.115624569345218
-0.10484576307408745,-0.1135097183313204
-0.10515713656607029,-0.11339808902790031
-0.10690953050691304,-0.11277514579339047
-0.10875987350144067,-0.11210954478633167
-0.10279622581354761,-0.1142484517644994
-0.10103034632444546,-0.1148866944082749
-0.4540140125157258,0.05941409870787984
-0.11462228679546693,-0.10998524984248195
-0.11657530000197386,-0.10927406340357174
-0.11270212944366689,-0.11068234567189228
-0.11071493921207512,-0.11140399468357041
-0.12252128583766345,-0.10709211114927508
-0.09507414116364137,-0.11704764757464457
-0.09312349110094464,-0.11776532339046222
-0.4609458697744288,0.057868459362443427
-0.09120739931441994,-0.11846505878078484
-0.08726728521918217,-0.11990666437171335
-0.08921960645494162,-0.11919357772725808
-0.08542111331026102,-0.12057424232135466
-0.08335935352605413,-0.12132380520198427
-0.08131432314577719,-0.12206710768972684
-0.07552082347171048,-0.12418208205745279
-0.07750128560861902,-0.12346003288829496
-0.4687593860518313,0.05166392847377792
-0.4726661614318323,0.04845639136125422
-0.4692084469985719,0.05160408713428836
-0.0795505463331419,-0.12271186858292227
-0.0735947794195195,-0.12488108826361854
-0.07164102678017237,-0.12559024416237252
-0.06972808216348092,-0.12629007146479282
-0.06795463488741646,-0.12694559284885823
-0.06395740661656153,-0.12844113853972686
-0.06579648808849765,-0.12776362415605724
0.29615787565554985,-0.043872728278021494
0.2943753723513938,-0.04452242140256858
-0.47346354423504977,0.047698533978008315
-0.4765729233391529,0.04533111552229583
-0.06773978257498879,-0.12702574935525252
-0.06189256789591441,-0.1291917808791603
-0.006839731631316605,-0.14913413684250026
-0.005310978224187131,-0.1496884747396321
0.01677445597123486,-0.14549882061684094
0.017264349424251382,-0.14532151469356736
0.27664898010396194,-0.050989644064702425
0.2746963947790835,-0.05170200701109706
0.27389754370084385,-0.05199309324036035
0.29226886914140093,-0.0452901514979607
0.29026288401177713,-0.04602091033746814
0.2786826153396939,-0.05024630655351374
0.28055373710053577,-0.04956378108971884
0.29806090992871026,-0.04317982993158841
-0.4786759553872069,0.04379313760975938
-0.059849617158396214,-0.12993297879506313
0.012950820282509497,-0.14688554605088297
0.015007928335210152,-0.1461382435994017
0.01097866945319682,-0.14760335688779994
0.007106720902044832,-0.14900768737712725
0.00766231978482807,-0.14880636656332932
0.005227942936541267,-0.1496893065965908
-0.003385597778099932,-0.15038777118233765
-0.0071893469257177265,-0.14900779557926735
-0.0016316576858669508,-0.1510273520427188
-4.634309635746283E-4,-0.15145610320934325
-0.009359237886183716,-0.14822486547649297
-0.009133419743914942,-0.1483064011384371
0.02088595177121058,-0.14401358034104966
0.021677509871572978,-0.14372840454306504
0.01881359811195292,-0.1447628308659649
0.26455924100704137,-0.05541796894904975
0.2649383677254628,-0.05527729006565302
0.2729040727118183,-0.0523559733842626
0.2999612947534669,-0.04248546433901954
0.28996072149063984,-0.046131058198566964
0.28641188894391056,-0.04742778346966574
0.28836414827856066,-0.046714553134302186
0.2844711172868072,-0.048135623773227415
0.28250652428511547,-0.04885197303101598
-0.48047963894754164,0.04248853096344343
-0.05808635226655523,-0.13057989877512466
-0.05803678773283495,-0.1305988537128967
-0.020974852514593363,-0.1440233297093294
-0.021894270748207302,-0.14369099123850426
0.009048623433522116,-0.14830465852280011
0.0033019999962978844,-0.1503886907717718
0.00154725700764789,-0.1510294528129521
8.785154338479627E-4,-0.15127421126679585
-4.2672172162761356E-5,-0.15161232259385066
-0.015095711305824489,-0.1461449706951142
-0.013038883831275242,-0.1468932675149618
-0.011065991111569773,-0.14761008099543346
0.024765831530497873,-0.14262341576914045
0.024681447704292255,-0.14265348832653632
0.02272433750006734,-0.14335341293148618
0.18926053674410845,-0.08285210585682094
0.1907281053596572,-0.08231404045905018
0.1939699410736635,-0.08113889628752163
0.1927747183623169,-0.08156973674228722
0.2707938312331859,-0.05313389951446451
0.26879164862678323,-0.053868505224984674
0.26689021882743985,-0.05456290883002968
0.26301505126337693,-0.05602133678047631
0.30163998041569984,-0.04187393481023773
-0.48438612774253814,0.041030820056062976
-0.05604310928874195,-0.1313516504017979
-0.05462000330425883,-0.13190552543428902
-0.018903312228652856,-0.1447748179469944
-0.022811496998480885,-0.14335837265422205
-0.016043758320724515,-0.1458029909954971
-0.016863122013027646,-0.14550793385789162
-0.0258785152305089,-0.14226785253844906
-0.024769262626089656,-0.14266023673369932
-0.04376038039417344,-0.13595376443122045
-0.042516357810428215,-0.1363701956474821
0.026685112705324233,-0.1419428409258501
0.027652535830452962,-0.14160102012441889
0.06766173947639041,-0.12704586745333016
0.06756696438517969,-0.12708075892622928
0.08535215215917229,-0.12061931115382099
0.0871975134224024,-0.11994950877595775
0.19073911434142996,-0.08234430280727506
0.192790171536847,-0.08161221563438252
0.1943134759529334,-0.08106497358611764
0.26496455823719955,-0.05534928458818979
0.2601413650016263,-0.057222796779834745
0.25914001354785676,-0.0575776672002183
0.2572722231015185,-0.058260256360131484
0.30331623186987045,-0.04125289644509131
-0.49219876443015553,0.04019687465598669
-0.054084193478367557,-0.13212477979279463
-0.05268125855024233,-0.13270517561454642
-0.028114009704079176,-0.14149540451960446
-0.02677507627104442,-0.14195547292049254
-0.0404464999903294,-0.13711664904111792
-0.04437288967356594,-0.13575019528888943
-0.038590292930166935,-0.13783648135918997
0.028602574845559225,-0.1412726248828009
0.06784222693323998,-0.1269806226035851
0.06571205193522384,-0.12776619605374923
0.06387607542313725,-0.12845225292543178
0.059772836454394,-0.12995659897441736
0.06181370966582506,-0.12920969233137206
0.09114155841412441,-0.11851870196815012
0.09306002712729733,-0.11782549835695218
0.0891510770981498,-0.11923983519677038
0.08329014539042102,-0.12136819433304327
0.08124407544385379,-0.12210863825451558
0.07544888400501068,-0.12421896785106826
0.0774297024182086,-0.1234978969436478
0.1620388578463727,-0.09281736072640943
0.16141037455045157,-0.09303846265684873
0.14981540794567494,-0.0972164310583172
0.15167315005150978,-0.0965523688032266
0.1477599524470218,-0.09795502957647902
0.14580868346498477,-0.09872165097540472
0.18291947298916658,-0.08529477869340658
0.18366389103660505,-0.08504413703096218
0.2651371616868481,-0.0553117680106799
0.26518764980585086,-0.055273963110023
0.26109820440866616,-0.05688071318841664
0.25647225386674877,-0.05855756352892004
0.23767806662733715,-0.06545899315384271
0.23962549097964292,-0.06473244332327364
0.2358150875691119,-0.06614567125534375
0.35545134789330246,0.002652139696795325
0.3536196461973564,6.880743887399326E-4
0.3502053192004757,-0.003217616468161356
0.3515444264510495,-0.0014472220045143572
0.30367476032492174,-0.04112559637644661
0.3572586413068401,0.004593728449690353
0.359358435302341,0.0077648587518922675
-0.05218912697102136,-0.13291694041762112
-0.050253617250649585,-0.13367619279232684
-0.048340467496451836,-0.13436687991039747
-0.046340700160300716,-0.13507964333365102
-0.02948138001826643,-0.14105989892137713
-0.028701161574128706,-0.1413089118515888
-0.03842604572984275,-0.13791180019766888
