"Plane Section: Position[X] (m)","Plane Section: Position[Y] (m)"
3.5,6.10469568614322E-4
3.2700000000000005,6.194929360192994E-4
3.04,6.440684909353706E-4
2.8100000000000005,6.791167969598494E-4
2.58,7.361244673347832E-4
2.3499999999999996,8.312097884079176E-4
2.1200000000000006,9.576005013677143E-4
1.8900000000000003,0.0011309857615040666
1.6600000000000006,0.0014000686742978944
1.4300000000000002,0.0018032832442685782
1.2000000000000004,0.0022349109323433524
1.1760000000000002,0.002471906283087575
1.1520000000000001,0.0025580812748371242
1.1280000000000001,0.0026521390443163544
1.104,0.0027584516849673115
1.08,0.002872051668812754
1.056,0.0029899857605511023
1.032,0.0031248427660983255
1.008,0.0032807967022655113
0.984,0.0034424416411720695
0.96,0.0036271418897655125
0.9359999999999997,0.003844498238803537
0.9202353841228905,0.004000000000000023
0.912,0.004081800017178437
0.8879999999999999,0.0043356714363065214
0.8640000000000001,0.004607616746197051
0.8399999999999999,0.004902391322072932
0.8160000000000001,0.005211607848189456
0.7920000000000003,0.005566523334717764
0.7680000000000005,0.00595212875337843
0.7440000000000003,0.006383475059540065
0.7200000000000003,0.006865473650651082
0.6960000000000004,0.007381315154994525
0.6720000000000002,0.008063860251139199
0.6480000000000001,0.008820249726689228
0.6240000000000001,0.009670535030401745
0.6000000000000001,0.010759800259282939
0.5806920156259721,0.012000000000000132
0.5760000000000001,0.012318794130125182
0.552,0.01429729165962687
0.5280000000000001,0.016191137964287155
0.5040000000000002,0.017501853552212746
0.48000000000000054,0.01982939857109088
0.4781633658997174,0.01999999999999902
0.4560000000000004,0.021830845919294295
-0.4781428528239168,0.01999999999999757
-0.48,0.019845664530009476
-0.5040000000000001,0.0175466276845405
-0.45599999999999985,0.021629543529010496
-0.528,0.016232860706871716
-0.552,0.01433951361674608
-0.5816938021804391,0.011999999999998392
-0.6000000000000003,0.010786786955638103
-0.5760000000000003,0.012398865708490274
-0.6240000000000002,0.00967423106632755
-0.6480000000000001,0.008789853486185491
-0.6720000000000003,0.008061717004387979
-0.6960000000000003,0.007394313806333859
-0.7200000000000002,0.006835898552898288
-0.7440000000000002,0.006360656628173908
-0.7680000000000001,0.005930686899342381
-0.792,0.005543604590442235
-0.8160000000000002,0.0051913152396292584
-0.8400000000000001,0.004877255029727597
-0.8640000000000001,0.004589227969335201
-0.8879999999999999,0.0043194181080862
-0.9184444930072483,0.003999999999999792
-0.9360000000000002,0.0038359061000325452
-0.9120000000000001,0.004060755969640945
-0.96,0.003631455474362953
-0.984,0.003448224288628849
-1.008,0.0032896203344523578
-1.032,0.0031416920276266572
-1.056,0.00300689533842836
-1.08,0.0028833483820959746
-1.104,0.002772083676573038
-1.1280000000000001,0.0026664771345538177
-1.1520000000000001,0.0025684254539175702
-1.1760000000000002,0.0024779312441389773
-1.2000000000000002,0.002244127871190867
-1.4299999999999997,0.0018085344811429112
-1.66,0.0014016235788214257
-1.89,0.001134616929857563
-2.12,9.538672102251615E-4
-2.3499999999999996,8.274187622559034E-4
-2.58,7.398510084725261E-4
-2.81,6.827105157700304E-4
-3.04,6.420503634835362E-4
-3.27,6.186357103611294E-4
-3.5,6.13867003649266E-4
-0.3515651736495337,0.040483160875789403
-0.3501305271396936,0.03831929138318066
-0.30164890733098254,-0.00815353552188749
-0.29998201206880426,-0.008760202341405903
-0.3478067700508609,0.03441275355114077
-0.34509468304667995,0.030506167623636657
-0.3476597186829462,0.034063700415120725
-0.35248233230583015,0.042225832689040566
-0.2944016648350842,-0.01079259591503413
-0.296183698918198,-0.010143756816924678
-0.2922950341699001,-0.011559614064309007
-0.29028888717472656,-0.012290058673623391
-0.2883893871032182,-0.01298167984323547
-0.28643634817908714,-0.0136927824774555
-0.2844951925953825,-0.014399568927723802
-0.28253026891959176,-0.015115009208515794
-0.2805772304767681,-0.015826126341171323
-0.3033499636975967,-0.007532666234172361
-0.2980829724978056,-0.009452119555742905
-0.3440810443799855,0.028552917067429878
-0.35442005123233944,0.04613232270946796
-0.27870571346721895,-0.0165075650737069
-0.30342992474844754,-0.007503579221862926
-0.3442479934285528,0.026599812729435242
-0.3428752298246512,0.024646517694868156
-0.3437544728542511,0.02595562929799649
-0.35547049936184105,0.047946239761367776
-0.35668914700476717,0.05003885377159402
-0.2610468599919189,-0.022937335962193196
-0.25909382918353746,-0.023648474062240618
-0.2572252375391898,-0.024328860575916416
-0.27667115702868694,-0.017248370047504263
-0.27471811977419863,-0.017959490443828063
-0.2729253789027272,-0.018612305297758952
-0.2708120452324133,-0.019381731146382832
-0.2688080669986306,-0.020111400638222192
-0.26495293372452783,-0.021515093037298826
-0.2630144609875518,-0.022220904829746622
-0.30356149858684,-0.007458313418626718
-0.3418016579195366,0.023451994909650067
-0.3411825145296085,0.022693183033624217
-0.33947214121467106,0.020739846185399452
-0.3398488101547411,0.021213435478764635
-0.35902189475640484,0.05394539271715106
-0.25518775686357076,-0.025070720866843067
-0.2532347247639479,-0.02578185542059869
-0.2514454902972266,-0.02643345584966527
-0.26690597417965684,-0.020803981431269228
-0.30364460899353507,-0.007431932282081259
-0.3882271101511213,0.04613650978315184
-0.38867396386035147,0.04520713399039507
-0.337895933426655,0.019208730028219507
-0.33749633700407156,0.01878647646301304
-0.3356530838013355,0.01683312315734046
-0.335943057750568,0.01719553052923504
-0.3884192825662997,0.04672303425555496
-0.3894407454803804,0.047406654061301526
-0.3885475138327284,0.050042799495763235
-0.3593759517360372,0.05438663164190613
-0.2357448306507719,-0.03215030242760969
-0.23761047598816598,-0.03147095388011416
-0.24932866785287905,-0.02720414454442081
-0.24732725468409839,-0.027932885153299506
-0.23956351014823762,-0.030759824985216313
-0.30380086980459664,-0.0073799520996274395
-0.3336464298847578,0.014879749614157334
-0.333990178359557,0.015212325903684421
-0.39019041848562297,0.04418362792794247
-0.3880767983094593,0.053948991226636225
-0.3618367469419791,0.05785199137233153
-0.23175139695986263,-0.03360440497356441
-0.233704429863338,-0.03289327262752961
-0.22996568829571032,-0.03425472862402548
-0.2278453590721378,-0.0350267463435185
-0.22584652363585878,-0.03575458118942815
-0.24542259857851967,-0.02862639971355045
-0.243469570139824,-0.029337544321737883
-0.2415338008496009,-0.03004241636062859
-0.30394027854590777,-0.007336188089905099
-0.3320372743485466,0.01342790681495596
-0.33157498110123484,0.012926368045989463
-0.39062723248222964,0.04404763041533634
-0.38893753713725976,0.05785534786086241
-0.3632815032593735,0.060026478491740205
-0.364886270905435,0.061758619092096
-0.21426451549307135,-0.039971951466154454
-0.2161271996828601,-0.039293644870359315
-0.22393929851825817,-0.03644902546271861
-0.22198626719856498,-0.03716016215847624
-0.22005321114080525,-0.03786410011177782
-0.2180802365297696,-0.03858252335464351
-0.3041285434944698,-0.007276555490511854
-0.3300843888764584,0.011493801676801441
-0.3295106798248132,0.01097298736305935
-0.3275052833126059,0.009019613975604933
-0.32813148672672693,0.009694354365721861
-0.39909316275044937,0.042231605536127266
-0.39843988114155615,0.04284781647157642
-0.3964866876575299,0.04340064580909282
-0.3945335709072557,0.043333915365553054
-0.3925804166987185,0.04356962857223433
-0.39062520600893175,0.06040967879467747
-0.36718724927828006,0.06409593905906337
-0.36876240987777326,0.06566534918982406
-0.20848601200122255,-0.042076225468387025
-0.21026814985052583,-0.04142717614817866
-0.20602694611394418,-0.04297170511426143
-0.20636215043475153,-0.04284962317821655
-0.21222118034374304,-0.040716037182565334
-0.3043919022082746,-0.00719119592231071
-0.32617860364998275,0.007740908911680231
-0.32544072246937805,0.007066233260525912
-0.3230162216820315,0.005112807966148172
-0.32422567951843306,0.006118946090467384
-0.3999353918849552,0.04027858483295674
-0.3915665990573133,0.06176192350553791
-0.3710929635697548,0.06842157167096165
-0.37250213580028513,0.06957206239251684
-0.20436608944095916,-0.04357708058265934
-0.3047612938955637,-0.00706477213258986
-0.30530025026496205,-0.006870556475567194
-0.30527912927067746,-0.006877794113105574
-0.3206380370833354,0.0031593884081245827
-0.32227275846842734,0.004472102400747564
-0.400333727977146,0.038325509152718845
-0.39453094706682423,0.06451919528827285
-0.3959234837706061,0.06566871314461328
-0.37499887055891823,0.07119133438898728
-0.20245642551781298,-0.044272824097055616
-0.20050359803166123,-0.044984520605111156
-0.19857362532972567,-0.04568851920879216
-0.19283433805647004,-0.04778075298281993
-0.1946454297538151,-0.04712047300084405
-0.30546176957370724,-0.00682975978345614
-0.32031982819993154,0.002899690222026791
-0.3183668780442465,0.0014878501659715403
-0.3180004736963073,0.0012059367254995414
-0.31533840971797433,-7.475179915690123E-4
-0.31641393232455584,4.019320906653916E-5
-0.4007547556089295,0.036372436282878236
-0.4003936069339775,0.03799704958164864
-0.39843681724324864,0.0675861894808808
-0.3828106770457508,0.0767913471287293
-0.1848818244498259,-0.05068041698417267
-0.1828883693085525,-0.05140702173815338
-0.19074005637093047,-0.04854463937946647
-0.18878744585515592,-0.04925693177907899
-0.18700925177101496,-0.049905603966166306
-0.19659823501416732,-0.04640871545143875
-0.19278596684832175,-0.04779840579457859
-0.3056274581909171,-0.006753160704869723
-0.3144609839390882,-0.001385939883566235
-0.3125080095442292,-0.002602069242816758
-0.4023471141715552,0.034910927181550186
-0.40213507011469024,0.06957573249229483
-0.38378347508258015,0.07738595966946826
-0.17709590268863243,-0.053518032982581384
-0.17902331919587688,-0.05281544390236799
-0.1731647662833683,-0.054950339930191695
-0.1751176617164225,-0.05423883003279973
-0.17130804965944424,-0.05562654644771768
-0.18097614381752625,-0.05210373952719011
-0.3123611974485997,-0.0027010117403985967
-0.3057555470017727,-0.006691007463066222
-0.3066490432141043,-0.005902093738559799
-0.3061452044666195,-0.0066080316338531534
-0.4047145747663649,0.0344198016996342
-0.40430029413696367,0.034467249164565505
-0.40234280337900385,0.06971691074973377
-0.406248808269501,0.0716962033449836
-0.39062287863278433,0.07920126177917206
-0.17018352631650474,-0.05603637249913635
-0.3105550334605983,-0.0038045632263843613
-0.30915009560946105,-0.004654534456931323
-0.30860205667528784,-0.005001391708927825
-0.4062534451104296,0.03425765643446677
-0.4099674730633917,0.032467327266902685
-0.40820665810000084,0.03354733643037965
-0.4101549086776569,0.07290427213806243
-0.4129888732096765,0.07348332678805626
-0.3984351485867547,0.08105917149395823
-0.16925902026450984,-0.056373482894319635
-0.16720514319630214,-0.057123672788926876
-0.16141047759882535,-0.05923647920845926
-0.1634014030542757,-0.05851094875257595
-0.41015992745059704,0.03238194908114654
-0.4140610394041661,0.07386754599745325
-0.4179671236719522,0.07520593441494906
-0.40624766362487463,0.0809382351884066
-0.4218732774901625,0.0759827624625637
-0.15168415668726484,-0.06278035482103371
-0.1498303368593552,-0.06345519882066622
-0.15949575026154963,-0.05993434775471804
-0.15754282362521158,-0.06064577195483058
-0.15561807304847725,-0.06134722991129106
-0.1654419890448556,-0.05776722057045222
-0.4127292047271248,0.030514544298067298
-0.4121132172147023,0.031051739983253706
-0.4140599864679825,0.08236911016797717
-0.4257794621775315,0.0765103482743832
-0.4296856551878555,0.07697073331645476
-0.14572589069038241,-0.06494963057901709
-0.1477780280864241,-0.06420244705478083
-0.14191903210372064,-0.06633612622624224
-0.14396203950477465,-0.06559198169554868
-0.1536372142868654,-0.06206929030090916
-0.13993063953518525,-0.06706057843380457
-0.4140665072554372,0.02971929735005223
-0.41796625453088687,0.08222350932350009
-0.42187255485861996,0.08181739758639853
-0.43345816542529325,0.07739211198189136
-0.1380134778824671,-0.06775979594694859
-0.13611086358874266,-0.06845491845367316
-0.13020476020584432,-0.07061370143300408
-0.1283550192806572,-0.07129037807646152
-0.4161155559414387,0.028561838689639723
-0.4160197667782758,0.028633260790021736
-0.42577881357758796,0.08174724119851867
-0.4296850945931253,0.08149705898984867
-0.4333712179072958,0.08129835124321547
-0.12630041726036864,-0.07204069782442896
-0.13606124709585535,-0.06847313124190944
-0.1341405551274368,-0.06917725933564262
-0.13215725269252937,-0.06990108487607627
-0.4202399913192295,0.026609224494455654
-0.4199262514919469,0.026738389264118
-0.4179730228246257,0.02757529376052842
-0.12425099979491261,-0.07278755939331447
-0.1199461802781406,-0.07435914691969811
-0.12044249182170227,-0.07417731715825651
-0.4218794607199058,0.02605844106838004
-0.12248698707601713,-0.07343019323745825
-0.1184469790409585,-0.07491216299077968
-0.4277389068310292,0.025484642028520587
-0.4257857788627296,0.025508487589853315
-0.42383263432993445,0.02566607737525759
-0.11459016711099537,-0.07632931843731214
-0.11654083966740758,-0.07561170358946012
-0.1127525944622199,-0.07700615336547093
-0.09703824639777993,-0.08272791249420564
-0.0969849265981852,-0.08274708626746596
-0.10689206944132623,-0.07915947105965766
-0.10873645559540895,-0.07847751096922548
-0.4296920429713092,0.025394814691228746
-0.11267338504507085,-0.07703568398574481
-0.11068786489852823,-0.07776191953646026
-0.09505978586886825,-0.0834404985143272
-0.09897370197834629,-0.08203979404161038
-0.0931050413783407,-0.0841469301253096
-0.10483739095628167,-0.07991900380103412
-0.10279136403963512,-0.08066737727888755
-0.10102578628409498,-0.08130644808608538
-0.4333681512655898,0.02465772542905115
-0.43164520312148436,0.025111127860278547
-0.09118729811698618,-0.08484213009574479
-0.08724225278366818,-0.0862701931955179
-0.089196814311695,-0.08556325909287177
-0.08539726955753456,-0.08694103525347946
-0.08333887755460204,-0.08769984734158218
-0.08129891960475284,-0.08845708069897933
-0.437504773084887,0.02353732701554896
-0.43555158393322896,0.02405517614682728
-0.4335983918839229,0.024596421322582024
-0.4433642312845615,0.0228659232120916
-0.44141108610479723,0.023028736724613193
-0.4394579352271967,0.023237555390293124
-0.08098167909155427,-0.08857427724212744
-0.07748830292321977,-0.0898566550716067
-0.07550916978311045,-0.09058235432111222
-0.06577247276342199,-0.09412995063835111
-0.06392725023039322,-0.09479059995580315
0.2796542433531838,-0.016251481689344274
0.2805663400560677,-0.015918734150830886
0.29438956069357125,-0.010881767014196936
0.29617138651074726,-0.010230371139779686
-0.4453173449343396,0.02295768754423491
-0.07953667859181515,-0.08910605981690285
-0.07358473829245864,-0.09128578904127324
-0.07163281459195106,-0.09199996772331848
-0.06972057819760291,-0.0927017404585438
-0.06772861132933304,-0.09342734774237427
-0.061862336066336246,-0.09554103496073593
0.26494568328668905,-0.02161770696178195
0.26300798464743735,-0.022325646570713408
0.2626743885056998,-0.022447757839354713
0.26104305662543115,-0.023049424661196943
0.2590910920415195,-0.023763493517528017
0.25722321448377394,-0.024445842911306706
0.2766618621298272,-0.017345363580976273
0.27470909475010274,-0.0180572259237416
0.2729167491120852,-0.018711127302626182
0.2999746417375961,-0.008844468532719842
0.2981392150210603,-0.009513764207334883
0.2922831604902132,-0.01164975084439805
0.29027715982048696,-0.012380463086956646
0.28642496919291605,-0.01378404892539039
0.2883777743721639,-0.013072319298143783
0.28448393438671316,-0.014491165746823426
0.28251909588680624,-0.015206840065257098
0.2786955999982666,-0.01660230854208105
0.29807422764633185,-0.009537517467399021
-0.4492236255769061,0.0227105167468491
-0.447270466173715,0.022988172301825212
-0.05982499569986821,-0.09629764100885563
0.010999568773095172,-0.11398111988399644
0.01238602423693546,-0.11347934227139204
-0.004607678109550637,-0.11631605622321967
-0.0033658837878662974,-0.11676629112328527
-0.007033722891835652,-0.11544092897615613
-0.005291921762403179,-0.11606866304602416
-0.0016117022638855321,-0.11740588939410607
-0.0010773166834138668,-0.11760149788692742
0.27080358550474926,-0.019481020735707982
0.2687998270992201,-0.020211294624841333
0.26689817718908576,-0.020905092956603165
0.25518659467781646,-0.025190069523098962
0.2532347291195213,-0.025904410554947365
0.2517054324882634,-0.02646633671937241
0.3016522422141941,-0.008232742792766494
-0.4492489326006513,0.022706567281463894
-0.058251983973211144,-0.09689201737117602
-0.05269289099405718,-0.09891614149458793
-0.05210809377410355,-0.09912669369663656
-0.05015490237656492,-0.09983739075156907
-0.04911588402872037,-0.10021856728874369
-0.044313256001441884,-0.10201871921347447
-0.04391913309717527,-0.10217318808481196
0.012973386009452855,-0.11326788795618956
0.01503237316117937,-0.11252574855813102
0.009069669881825278,-0.11468284047464478
0.0071284412368352295,-0.11538782394369478
0.00332277553983386,-0.11676641726422653
0.005102130655448324,-0.11612122074682002
0.005249141828583275,-0.11606809640397128
0.001567678627145169,-0.11740609229001703
0.0010999874769235401,-0.11757732042489649
-0.0071716146684051955,-0.1153915408972481
-2.2298211518527823E-5,-0.11799025415289
-0.009117101656443038,-0.11469392107734852
-0.009447682175281242,-0.11457431275185681
0.016015298067798688,-0.11217123422707226
0.01680000933289868,-0.11188937165487026
0.018841140658276828,-0.11115884856723302
0.17902515106717934,-0.052943037582907373
0.17709843050153182,-0.05364754021025316
0.25144778166929493,-0.02656229718567029
0.24733676521431153,-0.028081568958558123
0.24933527055402963,-0.027344835880975846
0.24543499424975185,-0.028783013622228022
0.24426639854207188,-0.029214496026742906
0.23959148539544267,-0.030959260533151997
0.23845067929827252,-0.031392852639114746
0.30321129178937445,-0.007660696557599511
-0.45117677909357534,0.022480389768980917
-0.058068312510224485,-0.09696263763291234
-0.05602058316148902,-0.09772207084738024
-0.054039449581943885,-0.09843418749682059
-0.048245139349987934,-0.10053737858954348
-0.04625539346841029,-0.1012776634345213
-0.042492756400355686,-0.10273767311475003
-0.014123859146126,-0.11289016516375291
-0.013023944694835263,-0.11328451458977316
-0.011049074735835952,-0.11399590468303634
0.019219954177259253,-0.11102378013287584
0.020918891238457877,-0.11042443115972599
0.02156521757890685,-0.11019824681005268
0.08722631783098199,-0.08634898758863549
0.08537737246087142,-0.08700893908861218
0.1934710019546328,-0.04775780780667749
0.1928124498487349,-0.04799374866191306
0.17512091940543287,-0.05437034387998502
0.1746306353819881,-0.0545500744362428
0.18490264721475683,-0.05086020598625677
0.1865490954686316,-0.050276204914152925
0.1809792192282046,-0.05223475048495022
0.18252157454460025,-0.05167911418813741
0.18289663525723127,-0.05155229858548675
0.24348631154389322,-0.029506102839990785
0.24155627374636826,-0.030226728306241055
0.23764868955599855,-0.031698530017820165
0.23579830882531821,-0.03241983410368543
0.35023263345797717,0.03823254996724981
0.34826021624083525,0.03432654422521522
0.3448135546801665,0.0304207210713783
0.3476526705885756,0.033126610632497534
0.3033315237800575,-0.007616651088769883
0.3515598284406386,0.040456502086305385
-0.4531299212425197,0.022342047567721394
-0.021968244735987002,-0.11010330780166648
-0.02097288936179173,-0.1104502139688393
-0.01691181623205823,-0.11190278703562631
-0.016856599952014235,-0.1119222962022211
-0.0407137517606169,-0.10343394491060318
-0.015085773069731112,-0.11254995054416309
0.023147179075081972,-0.109664297514164
0.022767575362276454,-0.10979256831469383
0.06573549644357513,-0.09415094297241433
0.06768861311306415,-0.0934400406652925
0.06389392484418077,-0.09482161955472887
0.05978416027947883,-0.09630802849705627
0.06182811798048224,-0.09556960017128767
0.05597000331320484,-0.09770570247294268
0.05801893377082956,-0.09694956093678535
