"Plane Section: Position[X] (m)","Plane Section: Position[Y] (m)"
3.5,9.357226050839278E-4
3.27,9.494008992672668E-4
3.04,9.871293932485594E-4
2.8100000000000005,0.0010401029518362127
2.58,0.0011282717488331642
2.3499999999999996,0.0012740790896323898
2.1200000000000006,0.0014661181877639103
1.8900000000000001,0.0017283042637234924
1.6600000000000006,0.002127790060973086
1.4300000000000002,0.0027185252390022323
1.2000000000000004,0.0033660713555916247
1.1760000000000006,0.0037181625114911703
1.1520000000000001,0.0038914569063110173
1.140393121329259,0.003999999999999864
1.1279999999999997,0.004116193703377752
1.104,0.004344031877868599
1.08,0.004610310038078512
1.0560000000000003,0.004856664191424869
1.032,0.005109729050571363
1.008,0.005387765733574345
0.9840000000000002,0.005652037057506956
0.9600000000000002,0.00593846356747331
0.9359999999999999,0.006253976583911404
0.9120000000000001,0.006589311461585446
0.888,0.006962732358164888
0.8640000000000003,0.007378992682227179
0.8400000000000001,0.007840273017383877
0.8160000000000002,0.008346209652427758
0.7920000000000003,0.008947019185779139
0.7680000000000005,0.009601408535693592
0.7440000000000003,0.01032560753854744
0.7200000000000003,0.011117832949442208
0.69611210544739,0.011999999999999757
0.6960000000000002,0.012004359699603562
0.6720000000000002,0.013213003667316417
0.648,0.014560643426380143
0.6240000000000001,0.016081311475459194
0.6000000000000001,0.017973327569929573
0.5809465780148015,0.019999999999998963
0.5760000000000003,0.020564303882017777
0.5520000000000004,0.02348321773940871
0.5280000000000005,0.026302724529514585
0.5141554856428335,0.02799999999999868
0.5040000000000004,0.02926712638268535
0.4800000000000004,0.033944044331732835
0.4734567847967728,0.03599999999999789
0.4560000000000006,0.04161517124574337
-0.4730778995512836,0.03599999999999613
-0.48,0.03393864533897854
-0.5143118061209708,0.027999999999997062
-0.5279999999999999,0.026325148667453745
-0.504,0.029279583334277354
-0.45599999999999974,0.040579250232652894
-0.5519999999999999,0.023515194960291405
-0.581346931783842,0.01999999999999782
-0.6000000000000001,0.01798151657999146
-0.5759999999999998,0.020619147809551593
-0.6240000000000002,0.01606484545713682
-0.6480000000000001,0.014521993522250493
-0.6720000000000004,0.013237842045367907
-0.6970585500653603,0.011999999999998682
-0.7200000000000003,0.011065820589121617
-0.6960000000000003,0.012045427885744732
-0.7440000000000002,0.01027567133500747
-0.7680000000000001,0.009564176234186886
-0.792,0.008914551367619367
-0.8160000000000002,0.008325149110815555
-0.8400000000000002,0.0078087186001949286
-0.8640000000000001,0.007344927268139857
-0.8880000000000001,0.006927424753082523
-0.9120000000000001,0.006543598388965277
-0.9360000000000002,0.00621809993721753
-0.9600000000000001,0.005911967471771038
-0.984,0.005615461210919598
-1.008,0.0053559002707285076
-1.032,0.005094648250641818
-1.056,0.004846977674741375
-1.08,0.004612223847299764
-1.104,0.0043709922069528236
-1.1447705760481153,0.004000000000000017
-1.1520000000000001,0.003931293944034164
-1.1280000000000001,0.004158981317401948
-1.1760000000000002,0.003756584163642362
-1.2000000000000002,0.003401346023194433
-1.43,0.0027327507600238025
-1.6600000000000001,0.002135469119609616
-1.8900000000000001,0.0017364191050837172
-2.12,0.0014606337618223069
-2.3499999999999996,0.0012666017841763857
-2.58,0.0011348485508515002
-2.81,0.00104679678684692
-3.04,9.8313514588643E-4
-3.27,9.474069521429153E-4
-3.5,9.407067201325666E-4
-0.30165747660704917,-0.02869217692325446
-0.29999059781140014,-0.02929888180951709
-0.35547875997288725,0.018610030225934174
-0.35481401386323835,0.017782795410752728
-0.3578468911530488,0.021689511772591923
-0.2944103238173425,-0.03133146322003378
-0.29619234396959426,-0.03068258572849043
-0.29230371784880116,-0.0320985491195427
-0.2902975942400658,-0.032829057951438964
-0.28839811635029666,-0.03352074003843286
-0.2864450997956686,-0.034231904107260916
-0.2845039649876789,-0.03493874761445281
-0.28253906352061975,-0.03565424888752985
-0.28058605188767555,-0.036365439647594935
-0.3033012422585323,-0.02809239076664281
-0.29809159926179796,-0.029990897473309637
-0.35260959494213595,0.013876206427339412
-0.34931654993271666,0.009969450063795588
-0.35157345723276723,0.012448832585232428
-0.359384269323801,0.02342744894168304
-0.2787145600064609,-0.037046947389271265
-0.30335886966039716,-0.028071509478617553
-0.3477387569408231,0.00801608244943291
-0.3463111666390094,0.00606273792926131
-0.34766790081648047,0.00793752309212118
-0.3612354916057771,0.02559628282813238
-0.2610558993098949,-0.043477247704489
-0.2591028899734337,-0.04418844477109139
-0.25723431568456123,-0.044868878947297824
-0.27668002578050155,-0.03778781336512246
-0.2747270049489896,-0.038498978864414224
-0.27293428037657314,-0.039151838475858056
-0.270820972639453,-0.03992133554922769
-0.26881701544407405,-0.040651062818753456
-0.2649619261916015,-0.042054876113960846
-0.2630234779510242,-0.04276075518075347
-0.3034525723787591,-0.028040100268369818
-0.3457151570239243,0.0054580322904270225
-0.34444127991628815,0.004109325404446225
-0.34248742942916044,0.002155899969904014
-0.34376233959656155,0.003457455978674258
-0.363289595931758,0.02943341219745811
-0.36332879429641973,0.02950285472703417
-0.2551968613316918,-0.045610811528275785
-0.25324385069715666,-0.04632200503015086
-0.25145462745219294,-0.046973636268522356
-0.26691494252060083,-0.04134369825001925
-0.30349534477972573,-0.02802890316900486
-0.34180952461191016,0.0014409924977136644
-0.3406244395108987,2.024885054965741E-4
-0.33876757279618275,-0.0017509220174460225
-0.3398567123425395,-5.931309390357983E-4
-0.36548358210563225,0.03340943607949136
-0.23575416003234545,-0.052691010748106906
-0.23761977747361412,-0.05201158559460285
-0.24933782870752091,-0.04774439005503065
-0.24733644053828524,-0.04847319931911659
-0.2395727815183417,-0.05130037399604163
-0.30365849474633994,-0.02797486905595841
-0.33790389969044543,-0.0026247651682428166
-0.33680046930024277,-0.0037043494896864433
-0.3348379427243147,-0.005657776258207717
-0.33595106998200064,-0.004545466369877375
-0.36719485031321064,0.03590913048868864
-0.36816856948165355,0.03731609895201221
-0.23176076243159538,-0.05414521240487204
-0.2337137731620887,-0.05343401916651763
-0.22997508610744072,-0.054795624858197244
-0.22785478272906162,-0.05556771355711548
-0.22585596596528895,-0.056295599680451266
-0.24543181045962292,-0.0491667853554233
-0.2434788015034818,-0.0498779834664369
-0.2415430519932108,-0.05058290982387399
-0.3037956604991744,-0.027932653989508484
-0.33274562340762465,-0.007611222982826753
-0.33399824083419405,-0.006469813918859977
-0.37053249095982843,0.04122271245951146
-0.21427409976085254,-0.06051335973953823
-0.21613675515406117,-0.05983497406791179
-0.22394876255147989,-0.056990103558261354
-0.22199576403889237,-0.05770133034897627
-0.22006272776387342,-0.05840532262405738
-0.21808976074705894,-0.059123766721151064
-0.30395156964550685,-0.02788647477350847
-0.3320453918181514,-0.00826494016248825
-0.33057157520905345,-0.009564682273552057
-0.3280795368288313,-0.011518190456398649
-0.328139634147756,-0.011467310164857542
-0.3711000816125319,0.042534973006463056
-0.3720312948380221,0.04512919295210603
-0.2090533800613773,-0.06241467547386495
-0.2102777768554723,-0.06196870178165926
-0.21223078132108789,-0.06125749133892554
-0.3042176287217509,-0.02780173700644469
-0.3300925318210956,-0.00998864684531194
-0.32618674666992986,-0.013012284228577132
-0.32567274167544763,-0.013471685532795078
-0.32341499426869247,-0.01542515769256942
-0.32423388090821137,-0.014698497985464205
-0.3729305661117988,0.04903558126443111
-0.20849573550828668,-0.06261801610227559
-0.2063720594315006,-0.06339192319370024
-0.2043760179738961,-0.06411943419541627
-0.30440545095778826,-0.027751913299781238
-0.32116174248505386,-0.017378629161124724
-0.32228102287354055,-0.016434967842929166
-0.375004680684064,0.05327277112662496
-0.20051375093117713,-0.06552749028298714
-0.20246638155485214,-0.06481525320916659
-0.19858377767177474,-0.06623148725373813
-0.304825011749845,-0.02761979277306327
-0.3203281500944531,-0.018075541223962557
-0.31844747171969034,-0.01933217151299481
-0.3157042898924016,-0.02128571831003761
-0.31642230360117596,-0.020700214766404202
-0.3775345182010964,0.05684878923077142
-0.18489217034585637,-0.07122391603960049
-0.18289878936495052,-0.07195072438988132
-0.1907506354687725,-0.06908877906153867
-0.18879790331316032,-0.06980073731206789
-0.18701943966557358,-0.07044866913672197
-0.19660834434117042,-0.06695156529593142
-0.1957155091223739,-0.06727706684424414
-0.1946557259863171,-0.06766383606193617
-0.19279647262035327,-0.06834234421556933
-0.30553061235677514,-0.027374469733450427
-0.3056428551013803,-0.027292176091141446
-0.3055355900438284,-0.027372432976729144
-0.3183752264890034,-0.01938554430921939
-0.3144694163501425,-0.0222466638974156
-0.31290616383935416,-0.023239273554950108
-0.38009862000623845,0.06466168356286825
-0.38194449139727116,0.07247446746448638
-0.3828139293920595,0.0744194972723858
-0.38921312480023823,0.08810058522737724
-0.3853349039429128,0.08028748884479901
-0.3906239961231147,0.09024587129005812
-0.1773206635586813,-0.07398366744001485
-0.17903382992837102,-0.07335939547914654
-0.18098660908869263,-0.07264756631124812
-0.27304479399319564,-0.03945532693537533
-0.27399568978056404,-0.03917673944996798
-0.27094021783994254,-0.04024880236561342
-0.2701933338699248,-0.04056134593222398
-0.3057563524456319,-0.027224485481941882
-0.30665758205156146,-0.026576929647335438
-0.30616189992412557,-0.027146560555676467
-0.31251648398676923,-0.023499706211422382
-0.39420768922621574,0.0959138532517552
-0.17710634847754075,-0.07406180615093313
-0.17317531406580644,-0.07549439311782008
-0.17512811782250415,-0.07478263149559183
-0.17131915911694212,-0.0761721420766212
-0.27309048665434155,-0.03958080645333527
-0.2710006971039821,-0.040414888312634706
-0.2700488719073818,-0.04063046587340253
-0.26900825439944914,-0.041176236256545505
-0.2698156698276355,-0.04090957106599978
-0.31056352730364095,-0.024594574914382522
-0.3096405663421691,-0.02519290067525802
-0.3086105951273828,-0.02584883419473107
-0.39843470293245287,0.10190923074099584
-0.40012122037906284,0.10372726257053262
-0.4120122603093258,0.09591659076786793
-0.4105146207374856,0.08810386040812057
-0.16927046017461203,-0.07691998593205857
-0.1672159894696898,-0.07766854541294188
-0.1614207007822383,-0.07977964049481316
-0.16341170887145906,-0.07905433701239253
-0.268469359760845,-0.04139982229166524
-0.26901965849534654,-0.041207553768375406
-0.4140627131781966,0.08233205052655149
-0.4062459041027017,0.11035730909512284
-0.41406004750164327,0.09966938322998298
-0.41710806957330115,0.10372987435899739
-0.1516939193557656,-0.08332225127295201
-0.1498401678722991,-0.08399728297259966
-0.15950588494146906,-0.08047726594150326
-0.1575529734943816,-0.08118873182832406
-0.15562809984623832,-0.08188985176102004
-0.16545241960433174,-0.07831095145005514
-0.42717511996987817,0.056856421649807316
-0.4296921937010899,0.05319231316582977
-0.4298958717000122,0.05295058992889261
-0.43359905501834045,0.049216658225402374
-0.4337722797067381,0.049044935894239416
-0.4173919024922362,0.08029241772231507
-0.4079505341815143,0.1115409664477027
-0.42121246076846697,0.11154300551607052
-0.1457359812835443,-0.08549242758967818
-0.1477879608537921,-0.08474481064540942
-0.14192967253877134,-0.08688043316684377
-0.1439723608790871,-0.08613541246204096
-0.15364698598649154,-0.08261121154578516
-0.13994178028170384,-0.08760625927668389
-0.4375057673844621,0.04620976873239198
-0.4266692234264733,0.06076259391257901
-0.4218759552725392,0.07750613273083001
-0.13928543559539924,-0.0878463132424884
-0.13021733606272876,-0.09116332236583288
-0.12836711204905737,-0.09183867211188443
-0.4402178792006237,0.045139676881918195
-0.44141225226485503,0.04468242697943747
-0.426503669130057,0.06466881850418088
-0.4252158953868187,0.0724811205967155
-0.12697455312774406,-0.09234774948025803
-0.13802604104087912,-0.08830938287295403
-0.13607430526506242,-0.08902407734529413
-0.1341526144913677,-0.08972546216627206
-0.13216955017017748,-0.09044994147035681
-0.44531867474883124,0.04356090619258051
-0.4262625288938176,0.06748128157300833
-0.42641238342008725,0.06857505460215291
-0.12631331319312925,-0.09259119730125874
-0.4492250676030418,0.042632094878187775
-0.1242667064029934,-0.09334577739380968
-0.12028063543035714,-0.09481304851665837
-0.12046205469625684,-0.09474612485263019
-0.45313146040130836,0.04170364739603655
-0.1225046712146303,-0.0939938418347844
-0.11846706006801117,-0.09548239294124078
-0.09897522292672081,-0.1025590519534528
-0.09699002080456094,-0.10327615831571213
-0.10690658570102203,-0.09971441597700509
-0.10875448650861061,-0.0990421085511291
-0.10102468599954634,-0.10181850652448476
-0.45703802701387064,0.039644726605188474
-0.45542965611231956,0.04123576570053928
-0.1146119695729576,-0.09690427467968983
-0.11656157919741134,-0.09618374144809333
-0.11269504484716318,-0.09761024776999494
-0.11070834494514653,-0.09833324325216251
-0.0950644705447456,-0.10396844654764932
-0.09311157596360671,-0.10467995875112653
-0.10484619945289132,-0.10045827333428674
-0.10204000439461577,-0.10145527153999195
-0.1027939233124197,-0.10118948514598863
-0.4575063804277368,0.03928295998120358
-0.45899133536763176,0.038452359519082845
-0.09119847192441839,-0.1053878990389126
-0.08725960745721723,-0.106832936500307
-0.0892115999712867,-0.10611894707318778
-0.0854154952277084,-0.1075061705368042
-0.08335477876435689,-0.10825859851329744
-0.08130944101023058,-0.10900105686377598
-0.07551492078123223,-0.11111322876593384
-0.07749523506300039,-0.11039077353860424
-0.06559666348668626,-0.11472590880860471
-0.065777405399984,-0.11465857754806191
-0.4609445433997962,0.03791247554413699
-0.0795447146557898,-0.10964321022825238
-0.0735899257682671,-0.111815115740274
-0.07163642522769735,-0.11252496388007398
-0.06972151183236139,-0.11321938468333978
-0.06772926317676567,-0.1139442181103151
-0.06394258009255653,-0.11534778027042769
0.2961645137876236,-0.03079166274335086
0.29438201526758123,-0.031441317422221164
-0.46471483364062727,0.03733094328343572
-0.06188522881911589,-0.11611898432910818
-0.006072549117310774,-0.1363344822751483
-0.005302804985908939,-0.13661344855753338
0.26103917911890184,-0.04361908011537811
0.2597102166976238,-0.044106115444169106
0.2766544158519142,-0.037905207437505486
0.274701809120242,-0.03861751148510485
0.2729098524622127,-0.0392724822389778
0.2922753067848225,-0.03220847174495814
0.2902694248547356,-0.03293951213231469
0.28641737013566426,-0.03434347204803323
0.28837025252582504,-0.033631954500751335
0.2857991882823415,-0.03456880956151205
0.2786887759485206,-0.03716386251529273
0.2805601210407616,-0.036481950993528287
0.29806739901614554,-0.03009855051653836
-0.4648508876066315,0.0373000625784448
-0.06185457667675555,-0.1161301885683684
0.012959588499098937,-0.133810270923692
0.015017422353260153,-0.13306496335728224
0.010987195821454377,-0.1345274169932834
0.005236672560108082,-0.13661398012781412
0.00680562436800498,-0.13604503543902818
-0.003377335946495808,-0.13731258563984966
-0.007181610990648386,-0.13593395715352785
-0.0016233088869720838,-0.13795218594039507
-6.662281668717952E-4,-0.13830316358994144
-0.008473043673402725,-0.13546857692786687
0.01540800892747689,-0.1329237415970623
0.016784829019105548,-0.13242795646307892
0.018823479053047317,-0.13169061383704384
0.2707974576137809,-0.040044488920739016
0.27045356983665303,-0.04016998171900478
0.26494331417760897,-0.04219150770982432
0.26300577292468846,-0.04289988018598159
0.259088368918135,-0.04433632245323651
0.2572247736024772,-0.045030443070331695
0.29996701121164304,-0.02940310476392467
0.2844768630015064,-0.03505203941233719
0.2825127797076506,-0.03576978970504834
-0.46875728162311003,0.03636369195609649
-0.0588352664454785,-0.11722965337819205
-0.05807752451994396,-0.11750301415176535
-0.05984450975588395,-0.11686631071195369
-0.056024726262658295,-0.11824852618153672
-0.05447984717309556,-0.11881565476764862
0.009057506631362587,-0.1352297083903158
0.007115663120616145,-0.1359329289638177
0.0033106160696622896,-0.13731308246488302
0.0015557563601986532,-0.13795344003135707
9.599149331087453E-4,-0.1381716818622538
-3.416772299579604E-5,-0.1385372379276988
-0.013031504362893215,-0.1338203581295009
-0.013284123169525585,-0.1337289812667946
-0.011058519333035196,-0.13453692033764358
-0.009126387568903976,-0.13523446832119562
0.019720195919171783,-0.13136731514305797
0.022584450137913954,-0.13034380624244624
0.020897321623541784,-0.13094545589120538
0.189226149011647,-0.06978956120794139
0.18878322215894078,-0.06994819466775956
0.18700301073607062,-0.07059132274863417
0.18487630217500034,-0.07136811189238776
0.18391480063303164,-0.07172180915095741
0.2687948039554678,-0.04077779963570263
0.2668946735176865,-0.041475774841849916
0.25519189230615175,-0.045784946337861884
0.254843812434693,-0.04591810971635771
0.30164540378956484,-0.02879202093577411
-0.47266373712552184,0.03502742207235573
-0.054048446071456896,-0.11897397178994441
-0.0521268157918841,-0.11969318676346158
-0.050186035086067934,-0.12043796564910328
-0.05005415866108347,-0.12048967420128298
-0.020970776409746143,-0.13095949192398143
-0.02281139346525528,-0.1303054443062336
-0.01789310600823307,-0.13206914388158683
-0.016858273051750403,-0.13244197337014746
-0.022856843342575036,-0.13028937351649272
-0.015090144254866539,-0.1330770381697948
0.02490212544408052,-0.12952838846920742
0.024698190152259852,-0.12960013145626875
0.02273738814248577,-0.13028990838687438
0.0853618841486734,-0.10754668296311604
0.08720871966706327,-0.10688093296446764
0.19024203669340678,-0.0694824081183553
0.18908347457537245,-0.06989486682117468
0.1848889316422025,-0.07140282767406715
0.1867200218218339,-0.07076370347044758
0.2541773805526717,-0.046222977960129606
0.30332574364785947,-0.028175299542908042
-0.4759033841969783,0.03342641351670223
-0.04829854628325859,-0.12119912177026518
-0.018898280200103458,-0.13170835496322694
-0.02518578419129126,-0.12948292275873452
-0.024775311667219514,-0.12962420476783837
-0.034166910325864996,-0.12636857101794388
-0.03458674953331552,-0.1261956172102311
-0.044386875521397536,-0.12273596538617204
-0.042547467535861,-0.12340298916898194
-0.03933810044992504,-0.12448551126892612
-0.03840368674067927,-0.12479776132197813
0.026840715883014225,-0.12886475205825915
0.02670920499408895,-0.12890968673766912
0.0657188993596777,-0.11468563873776055
0.06767444723864594,-0.1139814192930699
0.06387640964776478,-0.11535379167610307
0.05977933957044029,-0.11687509440565332
0.06181568277381054,-0.11611573583432805
0.09115405593758986,-0.10545367550363202
0.09307159205440473,-0.10475790824879087
0.08916378547301104,-0.10617538840119586
0.08330047284896523,-0.10829720299762771
0.08125549862959658,-0.10904065895293219
0.07545852227274455,-0.11114608212296828
0.07743931936630444,-0.11042495262518882
0.14190645117059392,-0.08700443304416648
0.14026077716631652,-0.08766539650970154
0.1498327789106035,-0.08416479949476763
0.15169011470364618,-0.08349962004595471
0.14777797654911018,-0.08490519360363788
0.1457232765261041,-0.08564533322862541
0.1439532124433531,-0.08627060668041413
0.18881033364429967,-0.07002271850884441
0.18702756195046177,-0.07065880893670494
0.2553184461828064,-0.04590149707309848
0.2552424251682305,-0.045923850677966206
0.25489801300215403,-0.046026270059776574
0.23768493026537416,-0.05237847345004015
0.23963784653865097,-0.051667020267999374
0.2358198581379336,-0.053059397892608745
0.35454307667149676,0.017673729235692683
0.3521315331314464,0.013767849972918824
0.34931551820811746,0.009862032899057327
0.35155160711897443,0.012813323246665209
0.3035298484852491,-0.028103322787352638
0.3554587675474291,0.01873437192348445
0.35783342240807636,0.02157947337950602
-0.47657028893616854,0.03306477165236945
