"Plane Section: Position[X] (m)","Plane Section: Position[Y] (m)"
-3.5,1.9756069668651787E-5
-3.27,1.997987781734512E-5
-3.04,2.0767108301667676E-5
-2.8099999999999996,2.2037778116118426E-5
-2.58,2.4037483209957592E-5
-2.35,2.6808790213792186E-5
-2.12,3.0860829057273604E-5
-1.89,3.68047200523804E-5
-1.66,4.5620090160528485E-5
-1.43,5.918247704424799E-5
-1.2,7.464459438242178E-5
-1.176,8.217400751027652E-5
-1.1520000000000001,8.456627304605131E-5
-1.128,8.897485159193474E-5
-1.104,9.201454552713496E-5
-1.08,9.5470399994993E-5
-1.056,1.0022724562513312E-4
-1.032,1.0434060419176196E-4
-1.008,1.0900827167777983E-4
-0.984,1.1382633663604294E-4
-0.96,1.1933530518716231E-4
-0.9359999999999999,1.2582464064084673E-4
-0.9119999999999999,1.314365171557081E-4
-0.8879999999999999,1.38706897404551E-4
-0.8639999999999999,1.4608307036341204E-4
-0.8400000000000001,1.544331715126128E-4
-0.8160000000000001,1.6344897780719747E-4
-0.792,1.7299342528897589E-4
-0.768,1.8399517675298093E-4
-0.744,1.959956112340245E-4
-0.72,2.0923410937763914E-4
-0.696,2.2319838678158368E-4
-0.6719999999999999,2.394482705715798E-4
-0.648,2.5773318899374124E-4
-0.6240000000000001,2.7884868739390324E-4
-0.6000000000000001,2.9912037014526E-4
-0.5759999999999998,3.284796403444166E-4
-0.552,3.588944381381553E-4
-0.5279999999999998,3.998750495832516E-4
-0.504,4.548655498584918E-4
-0.48000000000000004,7.947780134112304E-4
-0.4575446826149165,-9.31992023447696E-16
-0.45599999999999996,-6.233858834417215E-5
0.45756173549898327,7.643685927834504E-16
0.47999999999999926,7.966370693162547E-4
0.45599999999999913,-6.3225734810323E-5
0.5039999999999989,4.5466181621988343E-4
0.5279999999999991,4.0197761936043477E-4
0.5519999999999989,3.551775192956007E-4
0.575999999999999,3.280588524666905E-4
0.599999999999999,3.0090814446884933E-4
0.623999999999999,2.771557276297364E-4
0.647999999999999,2.592643446457885E-4
0.671999999999999,2.4041486174389276E-4
0.6959999999999993,2.2238333557908903E-4
0.7199999999999991,2.0798083916507857E-4
0.7439999999999991,1.9693762685446585E-4
0.7679999999999991,1.8424787345613518E-4
0.7919999999999991,1.7262088156958161E-4
0.8159999999999992,1.6321124321037333E-4
0.8399999999999994,1.546233156264737E-4
0.8639999999999992,1.4619455328271325E-4
0.8879999999999992,1.3859651004009E-4
0.9119999999999993,1.3158798857548925E-4
0.9359999999999993,1.2538744694516002E-4
0.9599999999999993,1.19401895986144E-4
0.9839999999999991,1.1402984197624369E-4
1.0079999999999987,1.0873973991000367E-4
1.0319999999999994,1.0429961658518932E-4
1.0559999999999992,9.976564868183061E-5
1.0799999999999994,9.56796317012044E-5
1.103999999999999,9.192355525687377E-5
1.1279999999999994,8.85152723890706E-5
1.1519999999999995,8.539671534615737E-5
1.1759999999999997,8.24945314975084E-5
1.1999999999999997,7.344765702828263E-5
1.4299999999999997,5.901792860387479E-5
1.6599999999999997,4.573214359281212E-5
1.89,3.67964155470027E-5
2.1199999999999997,3.084860986717235E-5
2.3499999999999996,2.6772155032276195E-5
2.58,2.3973681646057354E-5
2.81,2.1991840913084947E-5
3.0399999999999996,2.0740802326106196E-5
3.2699999999999996,1.997974826388462E-5
3.5,1.9794206340668815E-5
0.484375,-2.954463774898254E-4
0.4921875,-3.980495869291348E-4
0.4765625,-2.2772507259075005E-4
0.46875,-2.879614614164031E-4
0.4609375,-2.558217041407915E-4
0.453125,-2.367150326449633E-4
0.4453125,-2.1517227347614323E-4
0.4375,-1.8138449917456164E-4
0.4296875,-1.459035755293856E-4
0.421875,-1.241731277127683E-4
0.4140625,-9.023625571516827E-5
0.40625,-5.507023031418087E-5
0.3984375,-1.7439208800954994E-5
0.390625,2.368715503859968E-5
0.3828125,6.235973321285643E-5
0.375,1.0348132704880459E-4
0.3671875,1.557940691995479E-4
0.359375,2.1141863828527067E-4
0.3515625,2.59522563025155E-4
0.34375,3.174196370434901E-4
0.3359375,3.592665228207137E-4
0.328125,3.1526261861867334E-4
0.3203125,2.1404053690936867E-4
0.1285300040155072,0.01057496185853777
0.12919579669214315,0.010770124317082758
0.13060266193634984,0.010652177722321299
0.13212059245324095,0.010254494724248433
0.31640625,3.4754827731659063E-4
0.3125,3.5318703878549774E-4
0.11850357768527953,0.00731826978457001
0.12050941657952913,0.007997910403601875
0.1264414223152936,0.009930997195679662
0.12435700456968983,0.009269479409135193
0.12257018243968837,0.008690520078889078
0.13789005236642246,0.008861375805459417
0.14026222526756243,0.00842093056443567
0.13306982089141756,0.009950760452313051
0.13537494832047364,0.009068731104857885
0.13563815701897214,0.009055455169025032
0.14234585492505436,0.00805055518461571
0.30859375,1.4417470527584554E-4
0.3046875,2.8824868366599253E-4
0.11267770984449359,0.005299727129070659
0.11461037534878543,0.005974254381578961
0.11657414362594519,0.0066558915827618775
0.14453125,0.007861753866686052
0.146484375,0.006457117531381288
0.14254086094570476,0.008019282861138163
0.14774068104853078,0.00594517850323463
0.296875,3.9862890469071367E-4
0.29296875,2.6431625565391607E-4
0.2890625,1.0857341539637122E-4
0.30078125,1.2180912539700834E-4
0.09252542221481266,-1.9534381761206435E-4
0.09378347229547468,1.0503272773554379E-4
0.09057801767522752,-8.208817429227035E-4
0.11068631187193524,0.004601437777631962
0.10872446974561831,0.0039145085206915
0.1484375,0.005786416536876712
0.158203125,0.004069411080487551
0.15864745814650913,0.00399205350323463
0.15625,0.004351464471876639
0.28515625,4.7684410715972814E-5
0.28125,7.756933026756312E-7
0.0885874704191978,-0.0015300025807252747
0.08663463699445235,-0.0022416830409257202
0.08478637318733695,-0.0029166586076163556
0.09263048421345205,-4.8399927618023833E-4
0.09098547455531882,-0.0013815531477977092
0.10686240604495263,0.0032680425566527886
0.154296875,0.004638286737612362
0.15234375,0.0049735020364503855
0.150390625,0.005364054371429146
0.162109375,0.003552326458504915
0.1640625,0.003415744737484146
0.16015625,0.0037989718424073448
0.16796875,0.0032219894275656155
0.169921875,0.0025514554149180676
0.166015625,0.0033878468699693478
0.17082712103501044,0.00203892850323463
0.2734375,-1.2539600996122824E-4
0.26953125,-2.811290211722233E-4
0.265625,-3.036414253805821E-4
0.27734375,-4.463343080828557E-6
0.08068834543552258,-0.004431290973229109
0.08273333479585687,-0.0036770357406761362
0.07688404376502642,-0.005837379308679371
0.07892718845878417,-0.005082219958086909
0.09688736792859615,-1.311449225839287E-4
0.09889496783852057,5.35612055276867E-4
0.09176071008639435,-0.0018016874637992778
0.10479818318543661,0.002547799787780717
0.10273451441166052,0.0018370663065351487
0.10095628434617959,0.0012337772517029139
0.171875,0.0014838158948575278
0.189453125,5.564195233609769E-4
0.19140625,5.191620437238983E-4
0.1875,5.670664899387668E-4
0.2578125,2.0234129204014622E-4
0.25390625,3.836105591959294E-4
0.25,4.555589465846231E-4
0.26171875,-1.322495116751508E-4
0.07489144416409979,-0.0065754625992092705
0.06912280022085775,-0.008712145580674931
0.0710364049861139,-0.008002262401355868
0.09494573562494736,-7.680540153236104E-4
0.09296837490613867,-0.0014123462913380575
0.177734375,0.0010992876777134004
0.1796875,9.455429916873243E-4
0.17578125,0.0011659558024399298
0.173828125,0.0011981133115872569
0.185546875,5.559562435787807E-4
0.18359375,5.953888971169012E-4
0.181640625,7.351151601935051E-4
0.193359375,4.849785875128381E-4
0.1953125,4.539408291549003E-4
0.201171875,3.1161324454135594E-4
0.203125,2.701347237917992E-4
0.19921875,3.722804631759582E-4
0.197265625,4.193373309124389E-4
0.20703125,2.258808491435528E-4
0.208984375,2.778800682633314E-4
0.205078125,2.406004221893741E-4
0.2109375,4.1603797868725316E-4
0.224609375,0.0011659494273492492
0.2265625,0.0013049935639680176
0.22265625,0.0010687659423462617
0.220703125,9.827517158309909E-4
0.21875,9.021571973518421E-4
0.23046875,0.0013504776726050048
0.232421875,0.001273119135856441
0.228515625,0.0014134712109569742
0.234375,0.0012316291573928923
0.24609374999999997,6.666604328030568E-4
0.2421875,9.046975145520692E-4
0.07298571365838182,-0.007280897763661007
0.06713905315640523,-0.009448468650032713
0.216796875,8.161785827301321E-4
0.21484375,7.084674257920478E-4
0.212890625,5.744503629316332E-4
0.23828125,0.001037438008163915
0.2354687498882413,0.0011610176880213333
0.06519049684919781,-0.010171900393668401
0.06334981017003452,-0.01085823418397358
0.06129504325044634,-0.011623321988850327
0.05925507350721841,-0.012383560961931205
0.05749433534443846,-0.013036381581549388
0.05544759283102431,-0.013788722594955088
0.05346680780643841,-0.014513022333147567
0.049583595875068415,-0.015908661967190794
0.0515408262021272,-0.015209061896379213
0.04766206010779919,-0.016588210642440017
0.03484379176030859,-0.020827036623587963
0.033807943690634584,-0.021181783417498306
0.045663010238111444,-0.017291033857370762
0.04370243849738738,-0.01798145346991666
0.031813756658607764,-0.021861175591211895
0.03400059610928844,-0.021342022734476412
0.0418501645516319,-0.018626435254342745
0.039777824259053574,-0.01935275686917812
0.037722471403557736,-0.02006291536102397
0.027934568537188155,-0.023275956404816243
0.026028118087363997,-0.023988381269534866
0.02988379418010886,-0.022554363645872932
0.006672188232165262,-0.03073554355640077
0.007820892977191492,-0.030328599040708226
0.035943317298585534,-0.020665888664420512
0.02404453366913742,-0.024742264902173162
0.022506267532363722,-0.025317528208416276
0.008447676693149353,-0.030113450751531583
0.009606110657047463,-0.029719936743142703
0.010317127992604834,-0.029497517394641275
0.01128341502414178,-0.029171103580468732
0.01227650274710021,-0.028834135482921137
0.014317789004431453,-0.02808292934687891
0.0051221325116647485,-0.0312904453934437
0.0023885724426578074,-0.03227082808420802
0.003516330578877261,-0.031867929091291144
0.0012459566160501617,-0.03268134654449657
0.018323621565145057,-0.026701161513646134
0.01814176204595773,-0.026755206749383788
0.02025549398499262,-0.026133431232885414
0.021112342820509257,-0.02582487531318707
0.016083318295425163,-0.027447300616222328
0.02209793986957785,-0.02547108238224418
0.0036268920316314106,-0.031829352620135004
-0.002388640393192145,-0.03227095677997305
-0.0012461442351015786,-0.03268276449053213
-9.156283391462555E-21,-0.03313512605054666
-0.003543259659280265,-0.03185812770949759
-0.0036265897153274747,-0.03182900489546761
-0.0084424622171865,-0.030098737673293206
-0.006672176894193175,-0.030736035540161945
-0.005122926750733005,-0.03129419129732352
-0.00880128925481347,-0.02997176397947844
-0.009963079711012103,-0.029590010636311656
-0.011349703762049664,-0.029146976456788418
-0.010317256956970278,-0.029497950864007597
-0.014308971244189759,-0.028058687316387408
-0.013301491890930047,-0.02843658367376404
-0.012272434491250584,-0.02882293272866253
-0.018510907215250293,-0.026540511559252564
-0.018113492787913684,-0.02667753406253188
-0.016068477023090316,-0.02740651732801168
-0.018756523151897957,-0.026543598222266207
-0.019704159842998496,-0.026337412002741572
-0.02603010711991201,-0.023993846091351412
-0.027936801013383625,-0.02328209008253311
-0.024043955611668222,-0.024740676701385175
-0.02299381908524003,-0.025140073955053497
-0.0221002147359999,-0.025477332530986094
-0.020261210839538697,-0.026149138279199388
-0.031815457146959096,-0.021865847644391923
-0.03381487669248537,-0.021200831682850283
-0.02988436605747401,-0.022555934865964106
-0.033835782156914906,-0.021193922115077736
-0.033540013403535525,-0.02150966112978826
-0.03381769518854883,-0.021208575436864177
-0.033887143497386626,-0.021399383090382834
-0.04370339105533121,-0.017984070601264363
-0.04185365911773857,-0.018636036495467804
-0.04956911118499702,-0.01586886560971687
-0.047653909509444925,-0.0165658170583085
-0.0359496005782039,-0.02068315183267389
-0.03978190277384827,-0.019363962496080224
-0.0377278700485925,-0.020077748015821503
-0.045660309507154634,-0.017283613660316614
-0.0554189385602514,-0.013709995635854653
-0.05344210093072141,-0.014445140752440577
-0.05152080239863133,-0.01515404695039268
-0.05746236195473883,-0.012948535418471872
-0.0671136437410346,-0.009378656857560175
-0.06516286713173992,-0.01009598837156524
-0.06331992070354286,-0.010776113552648814
-0.07102108237964506,-0.007960163887583041
-0.06910095529680488,-0.00865212714725913
-0.06126441299993398,-0.01153916607022877
-0.059222528853894923,-0.012294145265002757
-0.07624032453766055,-0.006280150871442656
-0.07492025713329051,-0.006654625578613495
-0.0729839167019827,-0.0072759606667074685
-0.07696760263051142,-0.0060669553965739115
-0.08677338966020473,-0.002622902843318636
-0.0849329872060888,-0.003319477299088257
-0.08286763599968425,-0.004046025252384536
-0.08081606878522293,-0.004782207979902156
-0.07904072740844384,-0.0053941656473351345
-0.08872580261676662,-0.0019100671563195937
-0.09459707316391532,1.8988818907112934E-4
-0.09263647940550124,-5.004709303708187E-4
-0.09071194773349159,-0.0011888515406130646
-0.09652202647879546,8.726224251911161E-4
-0.09852026067810299,0.0015651114805674848
-0.10237798943755733,0.0028166105872795217
-0.10311625037043395,0.003033688167460539
-0.10058319298200039,0.0022588373134732054
-0.10450100766412784,0.0033642827929543017
-0.10540626877971293,0.003164889730501109
-0.10680342922074265,0.0034300800436385536
-0.1088430100964139,0.0035888215952486653
-0.11083937417894817,0.004180902560403045
-0.11216058735333717,0.004569815183263758
-0.11482623657385851,0.005381180561191894
-0.1128654532419523,0.004783906402371864
-0.12080355830237183,0.007189762690910468
-0.11877046701077576,0.006584997415532971
-0.11681566475954988,0.005992317745623447
-0.12901622842119526,0.009239071330958007
-0.1300130943056611,0.009487428129758212
-0.12687424024118094,0.008741839760150872
-0.12473612926209213,0.008227842914901543
-0.12290335784275744,0.007775128215017808
-0.13098082054086221,0.009613195532655298
-0.13750627340874494,0.009915799787983057
-0.1353014881930288,0.009980445133016267
-0.1331035352038341,0.009858131143552959
-0.1376591888862534,0.009900126678705115
-0.14263949097794965,0.00815742996757702
-0.14250595310560987,0.008211761367999195
-0.1400234759661469,0.009076888855496694
-0.14453125,0.007960232822599363
-0.14467996229268004,0.00789830350323463
-0.146484375,0.006583601130523429
-0.14818582398179797,0.00594517850323463
-0.1484375,0.005892272198244639
-0.15234375,0.005087130218110473
-0.150390625,0.0054842434735637
-0.15625,0.00439356746185814
-0.154296875,0.004724826093573686
-0.158203125,0.004023094044231682
-0.15834586765618466,0.00399205350323463
-0.16015625,0.0036716419513943377
-0.1640625,0.003010533028938723
-0.162109375,0.0032933540090418815
-0.166015625,0.002815702083255377
-0.16796875,0.0026288598828281174
-0.171875,0.0023139793033815233
-0.169921875,0.002464867176067304
-0.173828125,0.00217243460609919
-0.17522167840425198,0.00203892850323463
-0.17578125,0.0019849144881253582
-0.177734375,0.0013455024932399575
-0.1796875,6.895157621462325E-4
-0.18359375,3.385489022580822E-4
-0.181640625,4.86972563801119E-4
-0.1875,1.9373773873408023E-4
-0.185546875,1.798742915193433E-4
-0.189453125,2.959128014866824E-4
-0.19140625,3.8797183053962956E-4
-0.1953125,3.9420709173799306E-4
-0.193359375,4.213202324454034E-4
-0.197265625,3.344569091315303E-4
-0.19921875,2.884133716536178E-4
-0.203125,2.2806320571862386E-4
-0.201171875,2.548457581026634E-4
-0.20703125,2.263809788378694E-4
-0.205078125,2.1784174984963733E-4
-0.208984375,2.7553170233098685E-4
-0.2109375,3.8268228540447823E-4
-0.21484375,6.680147727473015E-4
-0.212890625,5.177393572733723E-4
-0.21875,9.599592260470006E-4
-0.216796875,8.219501945003367E-4
-0.220703125,0.001093433753932882
-0.22265625,0.0012353869488796235
-0.2265625,0.0013886940761785765
-0.224609375,0.0013397877183774721
-0.23046875,0.001331346152221708
-0.228515625,0.001406479921144209
-0.232421875,0.001250205146339152
-0.234375,0.0011974805220714428
-0.23578125005587935,0.0011531289139046924
-0.23828125,0.0010351484306803948
-0.2421875,8.895884362107851E-4
-0.24609375,7.201658439680114E-4
-0.25,5.894151226615196E-4
-0.25390625,5.089372662183656E-4
-0.2578125,3.2867357059024517E-4
-0.26171875,-1.9232047546799235E-4
-0.265625,-5.389300953939039E-4
-0.26953125,-4.1126663127106957E-4
-0.2734375,-6.824076210162715E-5
-0.27734375,1.3148712159983804E-4
-0.28125,7.942285304108051E-5
-0.28515625,6.051471671652457E-5
-0.2890625,8.2779753892073E-5
-0.29296875,1.9834652688050815E-4
-0.296875,3.426448730858834E-4
-0.30078125,1.1121186574412778E-4
-0.3046875,2.850503759704409E-4
-0.30859375,1.510347502731067E-4
-0.3125,3.8069434834995045E-4
-0.31640625,3.9672867261371814E-4
-0.3203125,2.638901248103397E-4
-0.328125,3.4100916666217546E-4
-0.3359375,3.502988004132672E-4
-0.34375,3.040360183798477E-4
-0.3515625,2.5584719646140185E-4
-0.359375,2.080803674487479E-4
-0.3671875,1.5455540779861238E-4
-0.375,1.0629717849949902E-4
-0.3828125,6.461605308715444E-5
-0.390625,2.400820056791802E-5
-0.3984375,-1.510050604019205E-5
-0.40625,-5.1616489236702354E-5
-0.4140625,-8.817650196665458E-5
-0.421875,-1.2154401911312288E-4
-0.4296875,-1.451146385992516E-4
-0.4375,-1.7849826366091344E-4
-0.4453125,-2.1056550263345245E-4
-0.453125,-2.3994895981239214E-4
-0.4609375,-2.615078342585375E-4
-0.46875,-2.8945560502677617E-4
-0.4765625,-2.3358709989640316E-4
-0.484375,-2.9876583846447785E-4
-0.4921875,-3.9508951635505024E-4
