"Plane Section: Position[X] (m)","Plane Section: Position[Y] (m)"
3.5,2.500182800612659E-4
3.2700000000000005,2.532575986407184E-4
3.04,2.628088431599388E-4
2.8100000000000005,2.7730848425041254E-4
2.58,2.9914265794113144E-4
2.3499999999999996,3.3759618065864604E-4
2.1200000000000006,3.884416487776478E-4
1.8900000000000001,4.557137969427263E-4
1.6600000000000006,5.604133686502564E-4
1.4300000000000002,7.176477676898482E-4
1.2000000000000006,8.84200459789269E-4
1.1760000000000002,9.749147309717764E-4
1.1520000000000001,0.0010076133858018884
1.1280000000000001,0.001045558789857229
1.104,0.0010891691823017148
1.0800000000000005,0.0011334870487992805
1.056,0.0011788949157714333
1.032,0.0012278228077222887
1.008,0.0012825428261938564
0.984,0.0013386961658048496
0.96,0.0013968663755321048
0.9359999999999999,0.0014637737036408268
0.9120000000000001,0.0015349577273476255
0.8879999999999999,0.0016100053507703508
0.8640000000000001,0.0016943051591075402
0.8400000000000001,0.0017864862097337346
0.8160000000000001,0.0018853781738209733
0.7920000000000005,0.0019963320200787485
0.7680000000000007,0.002116408416083527
0.7440000000000005,0.0022486513770007387
0.7200000000000004,0.0024004564795264164
0.6960000000000004,0.002573500604705384
0.6720000000000004,0.002774941667072195
0.6480000000000004,0.002999584788749704
0.6240000000000003,0.0032723876736634053
0.6000000000000003,0.0036438763034418293
0.5844340566934594,0.004000000000000361
0.5760000000000001,0.004196424526033931
0.552,0.004939632031814671
0.528,0.00598126950809887
0.5040000000000001,0.006735031194025623
0.4800000000000001,0.007509192914301445
0.45599999999999996,0.006589529571768171
-0.4800000000000003,0.007498068216493489
-0.45600000000000007,0.006653264655829029
-0.5040000000000003,0.006804241845994548
-0.5280000000000001,0.006042390560041197
-0.5519999999999998,0.004939234805669315
-0.5852177319960209,0.003999999999999119
-0.6000000000000001,0.0036691236853112815
-0.5760000000000001,0.00421031759724555
-0.6240000000000001,0.0032762063149214026
-0.648,0.002997313642249595
-0.6719999999999999,0.0027798691003735323
-0.6960000000000002,0.002575587405463142
-0.7200000000000001,0.002403640553469259
-0.744,0.0022538009770410278
-0.768,0.0021168975549376062
-0.792,0.001997661807970878
-0.8160000000000001,0.0018869368469670352
-0.8400000000000001,0.0017852973226743772
-0.8640000000000001,0.0016948250942728587
-0.8879999999999999,0.0016117550726622866
-0.912,0.0015339371894569293
-0.936,0.0014630883150146875
-0.96,0.001396740536136434
-0.9840000000000001,0.0013374852286648707
-1.008,0.001280797109242835
-1.032,0.0012282734560717982
-1.056,0.0011788692548577386
-1.08,0.0011297685545558897
-1.104,0.0010867232930454487
-1.1280000000000001,0.0010448478902101083
-1.1520000000000001,0.0010107900900224861
-1.1760000000000002,9.756919931342505E-4
-1.2000000000000002,8.821381238765124E-4
-1.43,7.168993097714689E-4
-1.6600000000000001,5.600077519866768E-4
-1.8900000000000001,4.56826965018237E-4
-2.12,3.872385618619796E-4
-2.3499999999999996,3.37278066707343E-4
-2.58,3.0035117424935314E-4
-2.81,2.7786485745658355E-4
-3.0400000000000005,2.6268983840130886E-4
-3.2700000000000005,2.5312234906869815E-4
-3.5,2.5056304081123013E-4
-0.3016383966856217,0.022756253882160675
-0.29997155722973434,0.022149452159880425
-0.29439103084098417,0.02011744166396266
-0.29617307967272916,0.020766242658170456
-0.2922843469790356,0.019350568683981682
-0.2902781622156583,0.01862022774385976
-0.28837862847251095,0.017928699051241205
-0.28642555713533957,0.017217685444767514
-0.2844843690673569,0.016510988217278928
-0.2825194123024815,0.015795638820571885
-0.2805663419813633,0.01508460924572621
-0.30264802647793904,0.023124356893615187
-0.2980724004511711,0.02145776674282804
-0.27869479144440956,0.014403262600472243
-0.3033411765746498,0.023375952632606067
-0.26103565374395554,0.007974272367350255
-0.2590825875297791,0.007263231511583704
-0.2572139649511027,0.006582929961016245
-0.27666019905979944,0.01366255635684609
-0.2747071282512812,0.012951528120782013
-0.2729143620518476,0.01229878282512287
-0.2708009923710459,0.011529455890850185
-0.2687969815488994,0.010799875906529123
-0.2649417872253039,0.009396351186523395
-0.26300328656012806,0.008690616102061068
-0.30347371369058584,0.023423118967533973
-0.2551764589073305,0.005841139346031635
-0.25322339236842567,0.005130099382226216
-0.25143412331528403,0.0044785939350430945
-0.2668948556204658,0.01010738605157695
-0.3034985805457139,0.023431261161682097
-0.30350937395273647,0.02343487195376321
-0.30350145396544864,0.023428849071343825
-0.23573321658868984,-0.0012375740202734413
-0.23759890304930775,-5.583384184987628E-4
-0.2473158329603448,0.0029793149911672354
-0.24931727225343087,0.003707983848544279
-0.2395519632583129,1.527189322159439E-4
-0.3035811637025574,0.02345182927489685
-0.23173971835286156,-0.0026914992927474374
-0.23369277972352037,-0.001980445132855721
-0.22995397731545514,-0.0033417340412583135
-0.22783359614978738,-0.004113609090971563
-0.22583473027313067,-0.00484136033394752
-0.24541114786290602,0.0022858800587720936
-0.24345808662364732,0.001574825537953775
-0.2415222805159326,8.700546187446644E-4
-0.30393447023026676,0.02357540089461651
-0.21425251727680794,-0.009058167983629684
-0.21611526043597873,-0.008380023348891387
-0.22392748704153836,-0.005535754857939093
-0.22197442265992437,-0.006246800747363824
-0.22004130730628607,-0.006950575843982249
-0.21806830582526493,-0.0076689252915100444
-0.304188312128777,0.02366026307109293
-0.2084739272214903,-0.01116220426224768
-0.2102560923393989,-0.010513229819510764
-0.204353721106601,-0.012662280612857268
-0.20634999164422663,-0.011935398695427356
-0.21220912909944992,-0.009802108059430398
-0.3043364102689055,0.0237009098646542
-0.20286000125121628,-0.013206209981636859
-0.30462462429800125,0.023793671041626264
-0.18997469627385533,-0.01790273046076693
-0.1907271738603363,-0.017628427853608308
-0.20049120495271805,-0.014069652805945162
-0.20244398260320182,-0.013357819326114503
-0.1985610400657095,-0.014773123675565256
-0.19277330284115932,-0.016882794290972964
-0.1946328609273098,-0.016205122827585485
-0.30508853197366514,0.023947548286085387
-0.3054793087743667,0.024078131067129645
-0.30539524325591,0.024054444576504068
-0.18486891963642654,-0.01976414454119163
-0.18287539656516721,-0.020490562803242515
-0.18877449416254286,-0.018340530388982153
-0.18699640833593473,-0.018989500087084006
-0.1965856100241652,-0.015493210916924089
-0.3057024284951824,0.024150639315744904
-0.17901035668594817,-0.021899013221492847
-0.1770828167233375,-0.022601263296531983
-0.17315166351778588,-0.024033524221069746
-0.17510450109912956,-0.02332185535877474
-0.17129508371882807,-0.024710106592311917
-0.18096324482189352,-0.021187483222105553
-0.3057975287099115,0.024186147560573093
-0.3066386124716649,0.024351813272217207
-0.30660429021515734,0.024301702554533386
-0.3222632262133007,0.029160390371165017
-0.3203101433135837,0.02863626889212827
-0.31890352798057275,0.028208940656421988
-0.31640399227084703,0.027404341817863623
-0.3144509183773434,0.02676811543715886
-0.3130617045766897,0.02625534633297926
-0.3281224918627504,0.030521766263020975
-0.32616939556036284,0.030164474396585404
-0.3261618673611704,0.030162648779134417
-0.3242163109603283,0.029661517544350986
-0.16924581549764062,-0.025456387142410573
-0.16719117694480348,-0.02620448568525546
-0.16244862754601436,-0.02793212554266665
-0.16338685449081655,-0.027590162445250904
-0.30859169894697447,0.02483142766842618
-0.318357065996226,0.02804266092713946
-0.31249784951818754,0.026069224040440004
-0.3339818219398569,0.031081179178100996
-0.3320287024126669,0.03101297793961161
-0.3300755937402562,0.030809661883864886
-0.3359349644575578,0.030863206116572617
-0.16542750760352304,-0.026846618540363618
-0.16139605714181365,-0.028316044861932243
-0.3105447770253056,0.02541556340809541
-0.3374110192196037,0.030163552507206804
-0.1516701420992013,-0.031861035629459876
-0.14981655959981405,-0.032536531508249734
-0.15948120564523033,-0.02901357245741234
-0.15752850109247518,-0.029725606721407116
-0.1556038954672915,-0.030427462911134524
-0.3365747679507253,0.028210360318617393
-0.3346476931256364,0.026257080496058325
-0.3359352220961196,0.027656251043105984
-0.14571288988772263,-0.034033096038422916
-0.1477646976240498,-0.03328500700444589
-0.14190653602370631,-0.03542097810956313
-0.1439492006365129,-0.03467589197372009
-0.15362298986511652,-0.03114939474204898
-0.1399183951021518,-0.03614612159926145
-0.3324925789694766,0.024303782353399236
-0.3339822534425501,0.025710050971029744
-0.13920122968719617,-0.03640793300136612
-0.13019167054142824,-0.03969692436717151
-0.12834135028367608,-0.04037201008925466
-0.33202927588085285,0.023874734783339457
-0.3305080126197914,0.022350497912115755
-0.12628629319700926,-0.04112108013623211
-0.1380017492548669,-0.03684675606612766
-0.136049691751608,-0.03756056763965425
-0.1341275357838466,-0.03826067501107014
-0.1321441339013913,-0.038984227597063104
-0.33007631708848684,0.02180578742488385
-0.32900207650369256,0.020397251922759787
-0.12423705975697538,-0.041868447267823614
-0.12042828564520636,-0.04325747438042431
-0.11843037890116404,-0.04398574548982367
-0.32822431337246527,0.018444064432957718
-0.11456930730630152,-0.045391202075649964
-0.11652253750847245,-0.04468061166058884
-0.11265018583788838,-0.046091142790126424
-0.11171367160955158,-0.04643358410055998
-0.12247329898819988,-0.04251177321184129
-0.10686686798924666,-0.048209432374421525
-0.1087126450114461,-0.04753129145913815
-0.3284194204499302,0.016490955101056536
-0.1106650802336528,-0.046818517400498964
-0.09749602260613127,-0.05163742457881635
-0.09895173427157009,-0.051098637462031256
-0.10480961503744422,-0.04896189496341377
-0.1027627933152257,-0.04970808568835879
-0.10099832353809979,-0.05035019943201301
-0.3300542039532071,0.014537961429076873
-0.09697273777302846,-0.05183278822180143
-0.33398328965267055,0.01281182929204142
-0.3320301024912799,0.01358550452191935
-0.33007690195948025,0.014525607872774005
-0.33461280960297196,0.012585202649488056
-0.09117695820514618,-0.05393290874060186
-0.09284882989252363,-0.053329287213841794
-0.087234986685385,-0.055369413974136514
-0.08918753617173393,-0.05465695377518781
-0.08539117892991335,-0.056043484697569895
-0.08332771162466446,-0.05678835711370421
-0.08127987642212298,-0.0575239550414087
-0.09505089790886083,-0.052535266357404936
-0.09309570748048036,-0.05324047244135548
-0.07548382962144297,-0.059631934248782395
-0.07746561291070661,-0.0589135137917724
-0.33593645635845887,0.012292775093890361
-0.07951409300926174,-0.058163204809317165
-0.0735565827431941,-0.060327636020328174
-0.07160508544948119,-0.061042986372226285
-0.06969302918676809,-0.06174525455525236
-0.0677039923582654,-0.06247891008812381
-0.06735044392467669,-0.06261226064124087
-0.06392277819392916,-0.06389749923162452
-0.06576078120130147,-0.06321702072336435
0.2793989249545231,0.014586822176698839
0.2805773091750596,0.015016354394905267
0.2961842153338767,0.020699764606554413
0.294401419806588,0.020050895224206947
-0.3398427686278517,0.011517833924268181
-0.33788961358606806,0.011891700490962963
-0.06333543430236513,-0.06411558874911374
0.26495669041834036,0.009317278951493549
0.26301875053197465,0.008610002675931167
0.26140504643567564,0.008020726862709424
0.2610519436537615,0.007891389046842615
0.25910040803636514,0.007176141778977702
0.2572327740069913,0.006493123453731276
0.27471982540886486,0.012878518823552803
0.2766723905580446,0.013590936768961821
0.27292770589167964,0.012223996236530879
0.2922946043319653,0.019284034099485398
0.2902884806800624,0.01855365841152094
0.2864360423647309,0.017150753308946817
0.2883890304671304,0.017861980111444874
0.2844949755827207,0.016443724464382244
0.2825301750272399,0.015727945959075503
0.27870618317437434,0.01433384098452212
0.2980876227197439,0.021391678645487505
-0.3437490751151829,0.010814864920901533
-0.34179592210854737,0.01116339901024942
-0.061861894044187786,-0.0646590036785159
0.27081464835731167,0.011453811418175402
0.2688110496755787,0.01072309872497311
0.26690931556338393,0.010029532018424884
0.2551962096231139,0.00574874491480361
0.2532439388369421,0.005035518011486837
0.251455524370275,0.004381663903413453
0.24733899185755182,0.00287755396860874
0.24933946824529596,0.003608869138312704
0.24586784999709857,0.0023393191128970228
0.23763030260318918,-6.82746551838681E-4
0.23958198228812036,3.210479476655471E-5
0.2357660369838054,-0.0013658869387211292
0.2999893741221209,0.022083229309173648
-0.3447437353374314,0.01063289153583032
-0.05925899083953358,-0.06559966371728856
-0.058051209691803315,-0.06603484744162504
-0.05981928846793199,-0.06540114907102525
-0.055998296028096126,-0.06678004208742444
-0.05402211914449354,-0.06750577264520982
-0.05397239906790033,-0.06752430675153302
-0.044283757682065064,-0.07105688691982606
-0.04244872552017319,-0.07173592962787032
0.00526637338116801,-0.08515066014772352
0.006335598257476782,-0.08476292743043749
-0.004422008523630763,-0.08546348878482178
-0.003352138362590438,-0.08584873148193226
-0.006536696457441096,-0.08470594442357211
-0.005280007324583971,-0.08515582975476253
-0.001597127384779031,-0.08648709095073284
-6.937637201599504E-6,-0.08706765421995712
0.2317760985651488,-0.0028295953548332837
0.23372730265504535,-0.0021134369949581504
0.23169117939512293,-0.0028608936347837635
0.24543559975518459,0.002180565591159843
0.24348475846213116,0.0014634102059688922
0.24155070333712206,7.538272125478193E-4
0.30166905752852513,0.022694095204953402
-0.3476553683075237,0.010277385319069868
-0.3457022243799567,0.010512907688715338
-0.052100325334696856,-0.06822454237659785
-0.050151491248514646,-0.06894720800216106
-0.04823789054614267,-0.0696366551061548
-0.04623839458052291,-0.0703501604050332
-0.040386615333515084,-0.07250366249892262
-0.038354333822127835,-0.07326634030666528
0.009087524678221942,-0.08376673293955755
0.011014523323796222,-0.08307269443452207
0.011019575329268736,-0.08307089383081662
0.012842574525221733,-0.08242600069344905
0.0071454821052139295,-0.08446956729210847
0.0033397302164597156,-0.08584888686141248
0.0015837680763883671,-0.08648713113496453
-0.007161739501149438,-0.08448395697302552
-0.008831929429608976,-0.08388883636677752
0.16390783655920904,-0.027525846051836386
0.16545501118519346,-0.026960328750559596
0.17318063977674927,-0.024151280825858622
0.17351476822716153,-0.02403008289601729
0.17132377133425047,-0.024827070329268466
0.16927424854668632,-0.025572651469257433
0.16721910771709908,-0.026319369792863135
0.22999396044784481,-0.003489731642371742
0.2278763709712646,-0.004269278764944498
0.22588135937330828,-0.005007622297546113
0.3022048055048854,0.022890774542791648
-0.35156165141334417,0.009865457559007038
-0.34960851071176846,0.010060824497892125
-0.03807725679897241,-0.0733735398182672
-0.03455529782323996,-0.07471336870092186
-0.03323713191963162,-0.07522928391385272
0.012998566697150743,-0.08237186536537415
0.014757580307892626,-0.08175691407005524
-0.01031297498264429,-0.08337739099888708
-0.009109834898160592,-0.0837932714081069
0.06574939991462972,-0.06322391073397168
0.06770112979114276,-0.06250919732207716
0.06390965770185358,-0.0638996146979734
0.0598056522496489,-0.06540185169742516
0.06184721806573963,-0.0646568494482121
0.05804085686253822,-0.06604456902004935
0.055989437191777396,-0.06679386851861567
0.054010826347710816,-0.06751291300610378
0.052082008604291,-0.0682123883334357
0.050130044773978234,-0.06892645880186346
0.0499764168084402,-0.06898312640112175
0.08541375753740127,-0.05614368942247726
0.0872565216925406,-0.05546674939830369
0.07720827272623028,-0.05907401890746959
0.07549246291051574,-0.059693807207492414
0.16143125277327203,-0.028450895014840293
0.16341633788528073,-0.027709313862460113
0.15120536702965548,-0.03221043580116137
0.15171414046681508,-0.03202007937568071
0.17514469730641724,-0.02347044582962818
0.17650391098126603,-0.023004820428987945
0.2239777519049943,-0.0057120085910104534
0.2220266597456182,-0.006428474554342005
0.2200956297655765,-0.007137980678983075
0.21432044947667597,-0.009282974905821821
0.2161793954376557,-0.008594394875445232
0.20855436206319863,-0.011421370851614788
0.2103313574543401,-0.010758189009596571
0.2122798796805245,-0.010034660447743152
0.3033535319651913,0.023311651385993157
-0.35742106569394577,0.009376747765875871
-0.3554679284712697,0.009528811022469545
-0.3535147905358108,0.009689746653883915
-0.03659976248560582,-0.07393790362364118
-0.032599814669015806,-0.07548783680434029
0.015065073689454023,-0.081650384474559
-0.012549514618946024,-0.08260477247568174
-0.011054763528575196,-0.08313077173919942
0.04243705592073002,-0.07174204232655035
0.04427591568118058,-0.07107351356670363
0.04037434889398939,-0.0725081425715232
0.03834325533613636,-0.07327409522092176
0.016827774536338415,-0.08104522971564854
0.01684230270925327,-0.08104036775758579
0.018893347277246543,-0.08033708623712425
0.07356532014768316,-0.06038979256254104
0.0716099041301233,-0.06109437585339966
0.06969419575993863,-0.061786610243151865
0.048223144658902116,-0.06963431710887814
0.04623168210410412,-0.07036989324734083
0.09119861432241055,-0.05403057622479038
0.09311647712782396,-0.053335706379574896
0.08920749413720383,-0.054749954439280935
0.08334807127192315,-0.05688246104784614
0.08129765575149156,-0.05761096353169001
0.07747553703797683,-0.05897893546180828
0.11981550338008909,-0.04372619292355627
0.11848879006853769,-0.04418440964497286
0.15951487275682485,-0.029144222242171537
0.15756270254439747,-0.02985772553865471
0.15564009695598896,-0.030565078757123602
0.1536595602182068,-0.03128802470353034
0.14987339646205858,-0.03273085792040047
0.1457715471173659,-0.034232426422117414
0.14781770186518,-0.033468801476702933
0.14401823217249773,-0.03490373303737222
0.14268147358040478,-0.03540574068020187
0.1751638063582295,-0.02352296064263081
0.17322680817947175,-0.02427815917959667
0.17297560622964817,-0.0243823342052757
0.2194180421900998,-0.007389258256919433
0.21812698038137995,-0.007868290507447835
0.20744511410889344,-0.011839595294646186
0.20444798654130897,-0.012959456139443923
0.20643846019334938,-0.01221664329635163
0.20059408081083271,-0.014390491866412987
0.20254212154390006,-0.013665640082392707
0.198672128767312,-0.015116533397587045
0.3034958593334605,0.023359558249916982
-0.35937420275094584,0.009226746752346129
-0.021065673344185486,-0.07966043993569036
-0.02101184090695909,-0.0796763911896098
-0.018903279133303388,-0.08035404146722017
-0.016862596288525048,-0.08105794939944175
-0.0309548357299504,-0.07620064295450746
-0.015091937374306873,-0.0816860641253652
-0.013036215473238386,-0.08243741054544897
0.03811084698877208,-0.07336318570596201
0.019898285398136706,-0.07999035908355433
0.020983662710616816,-0.07963719651853546
0.02195834961237836,-0.07933438131271528
0.10486135919672772,-0.04914224529662104
0.10280696557204061,-0.04986762772352945
0.10062028066103512,-0.05061729943600633
0.09897749469817001,-0.051207582282448885
0.09699433126340061,-0.05193028773466512
0.09507053003969586,-0.05262737705039525
0.07952954328539152,-0.05824381115856966
0.11657438042610443,-0.04486122539356846
0.11462357983235667,-0.04557849262713408
0.11271557456967711,-0.04630898313554498
0.10692587660336976,-0.0484097449961581
0.10876796530982388,-0.047721465187082965
0.12257465389485947,-0.04282845272549775
0.12050267929308403,-0.0435000605346979
0.14198466373091642,-0.03567381765974749
0.14000875422960665,-0.03643257577212334
0.1889248772769377,-0.01879192999361373
0.19087461889498009,-0.018071752520872467
0.18714862063814638,-0.019445927394780148
0.19670656414501722,-0.015863732912481464
0.19577518577716319,-0.016226495441395827
0.19291391861977505,-0.017307350642043473
0.19476529408402166,-0.016607191615410598
0.17139850626606423,-0.025032454196946198
0.16936775405923934,-0.025829619975833537
0.1691893857727426,-0.02590051658941706
0.18502782821547564,-0.020238974450774917
