"Plane Section: Position[X] (m)","Plane Section: Position[Y] (m)"
3.5,0.0015697278641461942
3.27,0.0015902902305325749
3.04,0.0016531489221455063
2.8100000000000005,0.0017418502516974663
2.58,0.001887580148402252
2.35,0.0021212755620598593
2.1200000000000006,0.0024230527389745584
1.8900000000000003,0.0028188129970219767
1.6600000000000006,0.0034457829562193716
1.548935563033795,0.00399999999999995
1.4300000000000002,0.004600928511014195
1.2000000000000004,0.005822433817664642
1.1760000000000002,0.006394446186367544
1.1520000000000006,0.00681397455465679
1.1280000000000001,0.007375249960090986
1.104,0.007828614677454047
1.0800000000000005,0.008256784992509394
1.0560000000000005,0.008554249738969968
1.032,0.008878099178306512
1.0080000000000005,0.009297674057418017
0.9840000000000003,0.009729742975335125
0.9600000000000004,0.010250290380495547
0.9360000000000004,0.010829813929494959
0.9120000000000004,0.011446142496108595
0.8941712428329133,0.01199999999999986
0.8880000000000003,0.012196790732631392
0.8640000000000008,0.013035539386677602
0.8400000000000003,0.013951075799941749
0.8160000000000003,0.014961256819241618
0.7920000000000005,0.01609028272266698
0.7680000000000003,0.017311599885721757
0.7440000000000004,0.018670898173183362
0.7235802580687818,0.01999999999999949
0.7200000000000003,0.020245667163612577
0.6960000000000004,0.021946699987576757
0.6720000000000004,0.024063104821197015
0.6480000000000006,0.02663679950994939
0.6377217350441483,0.027999999999998658
0.6240000000000008,0.029811637913747566
0.6000000000000008,0.03338497031948234
0.5863418773751436,0.03599999999999816
0.5760000000000008,0.03804945589241773
0.5520000000000009,0.04283652677396295
0.5474133668877545,0.0439999999999974
0.5280000000000006,0.04868851740824273
0.5174613260990923,0.05199999999999655
0.5040000000000004,0.0572606663304973
0.4974650032808153,0.05999999999999593
0.48639487199450093,0.0679999999999952
0.48000000000000065,0.07579687788814239
0.47982082886386535,0.0759999999999943
0.4718131469990856,0.08399999999999372
0.4671340916245581,0.09199999999999287
0.4666501590837656,0.09999999999999235
0.46597717927420174,0.12166666666665922
0.461960354499375,0.14333333333332599
0.45599999999999774,0.14955328597268158
0.4457047821452784,0.1433333333333257
-0.5473759689291732,0.043999999999995876
-0.5519999999999998,0.042825870852012934
-0.5176984053778784,0.05199999999999515
-0.5279999999999998,0.048724731544675715
-0.4980891460973744,0.059999999999994405
-0.5040000000000001,0.05748888546815475
-0.5863848868053693,0.035999999999996826
-0.6,0.03338529239474924
-0.5759999999999998,0.038061130181715544
-0.48660247359381487,0.06799999999999362
-0.4768530693160427,0.07599999999999307
-0.48000000000000004,0.07351967952495239
-0.6374509352186976,0.027999999999997718
-0.648,0.0266081919054137
-0.6240000000000001,0.029773700552659287
-0.4687164163001981,0.08399999999999216
-0.6719999999999998,0.02410170069851685
-0.4663705223091286,0.09199999999999141
-0.696,0.02197946825061792
-0.466063068051811,0.09999999999999087
-0.7226394439952045,0.019999999999998477
-0.744,0.018582886472880047
-0.72,0.020185843371167175
-0.465360507979827,0.12166666666665749
-0.768,0.017247921378781315
-0.4610959101371037,0.14333333333332443
-0.45600000000000557,0.1487772236888103
-0.4458507987115643,0.14333333333332426
-0.7919999999999999,0.01604721735843819
-0.8160000000000001,0.014932441124888155
-0.8400000000000003,0.013934910496342408
-0.8640000000000002,0.01301412750189198
-0.8929434000092336,0.01199999999999922
-0.9120000000000001,0.01138530164134528
-0.8880000000000003,0.012164453698449278
-0.9360000000000002,0.010741559896825303
-0.9600000000000002,0.010181774116748811
-0.9840000000000002,0.009652409617289682
-1.008,0.009183606429229614
-1.032,0.008761336758547162
-1.056,0.008417374045466492
-1.08,0.00812040673831661
-1.104,0.007772157221713559
-1.1280000000000001,0.007443110311041016
-1.1520000000000001,0.006996642177837392
-1.1760000000000002,0.006637376828778553
-1.2000000000000002,0.00597397213237004
-1.5508034185785906,0.004000000000000141
-1.6600000000000001,0.003447277880138009
-1.43,0.0046190908266700815
-1.8900000000000001,0.002833759792935254
-2.12,0.002420204152600677
-2.35,0.002109996882027623
-2.58,0.0018981068597390778
-2.8099999999999996,0.0017534508208459881
-3.04,0.001647653031175427
-3.27,0.0015885660359627254
-3.5,0.0015781816137341795
-0.3016773894042604,-0.06053563697592712
-0.3000105315065365,-0.061142384592259125
-0.35919896166914606,-0.0101529057016089
-0.35666006401022443,-0.014059584076662322
-0.294430292978054,-0.06317505887984359
-0.29621230016841715,-0.06252614587143694
-0.29232369885681253,-0.06394217734250204
-0.29031758643111427,-0.06467271688980972
-0.2884181228274537,-0.06536443820794717
-0.2864651230116238,-0.0660756482435588
-0.2845240012979159,-0.06678252770921693
-0.28255911087320235,-0.06749805930592129
-0.28060610275822556,-0.06820925972661152
-0.3032701352783511,-0.05995449866354051
-0.2981115409398584,-0.06183441965303807
-0.3554983344209537,-0.0153293401663267
-0.3531380366714132,-0.017966428308564972
-0.3495079242842214,-0.021873290774731033
-0.3515927955570576,-0.019544985333110897
-0.3474802516125196,-0.02382675787683422
-0.34768723815409514,-0.023650738703070384
-0.35940366224544484,-0.009862742125060015
-0.27873461237355573,-0.06889077157790684
-0.30337900634851117,-0.05991510498153941
-0.34573438564357245,-0.025266106451282598
-0.34524915708955595,-0.025780259296806364
-0.3435627991055145,-0.027733668818122843
-0.3437816360803091,-0.02749170225266095
-0.36188042289463945,-0.006246203275663331
-0.26107607085776036,-0.07532139917396682
-0.2591230648365337,-0.07603260534419157
-0.2572545025620452,-0.07671307251283938
-0.27670008284752784,-0.06963165046057158
-0.274747074131076,-0.07034284922957625
-0.2729543609251926,-0.07099574005253624
-0.2708410688669675,-0.07176528018358302
-0.268837130195998,-0.07249505832259412
-0.2649820696745457,-0.07389895051537185
-0.26304364151453885,-0.07460488472463817
-0.3034829585568644,-0.05987970760095746
-0.34187799788163914,-0.029687078076811986
-0.3633090455166731,-0.004724809098533173
-0.36551571606238054,-0.002339339935479633
-0.2552170637518185,-0.07745504777496992
-0.2532640602985033,-0.07816626099676902
-0.2514748382590701,-0.0788178955422651
-0.26693506830618485,-0.0731877240530833
-0.30353915761143213,-0.05986352050171672
-0.3418288904022793,-0.029740328063339462
-0.3401493363666107,-0.03164049473486079
-0.33831461349606073,-0.033593929285769764
-0.33987613395363037,-0.03192511017142126
-0.36721458295602716,-5.007198357314608E-4
-0.36912013480787537,0.0015675181960986965
-0.23577448173747922,-0.08453557455220484
-0.23764010513527462,-0.08385616575781683
-0.24935805518553775,-0.0795886923657413
-0.24735668449865195,-0.0803175496370644
-0.23959309520091754,-0.08314491577300129
-0.30361860992707845,-0.05984063375399334
-0.3379233588087955,-0.03399906914419663
-0.33645317888139753,-0.03554736834303
-0.3343654838965837,-0.03750084557107307
-0.335970577448052,-0.03603618286918175
-0.3711200999564752,0.003844522686886473
-0.3725582469586058,0.00547434827126325
-0.23178113007525256,-0.08598990235802063
-0.23373411033082872,-0.08527862543440523
-0.22999545863289245,-0.08664032821063336
-0.22787515749366227,-0.08741242305939323
-0.22587634365703918,-0.08814031722032212
-0.24545206811205417,-0.08101117327187748
-0.24349907274462013,-0.08172240869778911
-0.24156333880228661,-0.08242737780461269
-0.30370274493559424,-0.059818731046993034
-0.33401775423797375,-0.03782523133077072
-0.3321055332729703,-0.039454351859153844
-0.3748498844140545,0.009380984932794767
-0.2159706634360927,-0.09174797583003647
-0.21615725153446927,-0.09168001752713056
-0.22396917624077367,-0.0888349199490713
-0.22201620633042868,-0.08954622528105308
-0.22008316492936567,-0.09025020347689061
-0.21811022492944956,-0.09096872176406806
-0.3038243193271375,-0.059786504733627455
-0.3320649103678792,-0.03949181591065853
-0.33011204261507215,-0.04101683383424608
-0.3296513877129392,-0.041407890908485144
-0.3273899629673018,-0.043361397445250804
-0.32815918990814674,-0.04263103738113222
-0.37502537039599904,0.009651274645286763
-0.21429470686597568,-0.09235870724890996
-0.3039427655852328,-0.05976118234144531
-0.3262063757916628,-0.04447398881439363
-0.32533031897163467,-0.04531486994101428
-0.3232684025751184,-0.04726834282013606
-0.32425356571771125,-0.04634090265316494
-0.3773051958397824,0.013287649206602331
-0.21029852202599264,-0.09381442842068549
-0.20851667107153427,-0.09446426555099464
-0.20639302130300058,-0.09523824486264545
-0.204396861723866,-0.09596543147185405
-0.21225145873091875,-0.09310303190542536
-0.30403887005256836,-0.059752897699441865
-0.3211484418685749,-0.049221825491502565
-0.3223007501619375,-0.04817532262172931
-0.3789305641128027,0.015912806635037503
-0.37990098774218783,0.017194337179876163
-0.20053477450992188,-0.09737398130996963
-0.2024874033941338,-0.09666173950801037
-0.19890203036653695,-0.09796919224297547
-0.3042803540691156,-0.05970104399259355
-0.3203479247163295,-0.0499511197698943
-0.3185027435414732,-0.051175396856351744
-0.3156608777901916,-0.05312900131521404
-0.31644209850423993,-0.05246348571669104
-0.3828358549448712,0.02159868018278423
-0.18301714512488848,-0.10376207393260797
-0.18491338919698172,-0.10307094297201838
-0.18881873771127106,-0.10164670855948928
-0.1907716308257898,-0.10093519234340356
-0.18704052195030962,-0.10229532107740039
-0.19860471891319753,-0.09807775213056412
-0.19467719414217968,-0.09951154778513768
-0.19281773260823865,-0.10018948424228552
-0.3047168099305829,-0.059583848756277855
-0.30567961756607714,-0.05913676109293919
-0.3056256465476772,-0.05920347607862084
-0.3183950189562327,-0.051250846426600334
-0.3144892496097261,-0.054100287662628095
-0.3131116890706727,-0.05508255639860378
-0.385948941937014,0.025007857598615228
-0.18291992865770232,-0.10379753281467559
-0.19662970858649648,-0.09879899172713005
-0.30578396175412004,-0.0590726083614563
-0.3066775014830451,-0.05855773540027997
-0.30624694061238916,-0.05898996455734905
-0.3125363612281052,-0.05550302662991993
-0.39064659142039604,0.03205277046211408
-0.39813029710716447,0.04844741296236465
-0.3984562192655073,0.0490783554960858
-0.40434740460200136,0.06407346202892322
-0.40157233922286834,0.05626049375610362
-0.17712779655566077,-0.1059094624396416
-0.17905515791767831,-0.10520672202072627
-0.17319754960362566,-0.10734421175432475
-0.1751502224418836,-0.10663209065175559
-0.1713408282428677,-0.108020405250869
-0.18100789048603128,-0.10449476493914024
-0.3105834183023958,-0.056582451171722545
-0.30991763067492084,-0.057036220273394646
-0.3086305143588054,-0.05789294531897936
-0.39125368188536286,0.03282125263493499
-0.3945955428428827,0.04063431652781908
-0.4062657396764283,0.06674076523941663
-0.435796002252709,0.1422037686110425
-0.4375025621125472,0.1448544570390479
-0.44962352405610595,0.1578311015767774
-0.45312485995020096,0.16087305669568874
-0.16929151141010707,-0.108766552282981
-0.1672368584285831,-0.10951461120862432
-0.16144153148388898,-0.11162560120499493
-0.1634326225656746,-0.11090052563431207
-0.4099094572706194,0.07188690047465546
-0.4327474365297166,0.12657825408675172
-0.4588834678561341,0.15783266375640964
-0.15171456804185549,-0.11516771213824077
-0.14986101122545092,-0.11584327840131643
-0.15952662683838958,-0.11232298277676561
-0.15757366506706338,-0.11303431045879543
-0.15564874316834776,-0.1137352978866388
-0.16547331025249964,-0.1101570767971724
-0.41407631527760874,0.07814845098517063
-0.41550902918186156,0.07970034524999028
-0.42156429544918456,0.09532636701345808
-0.42188579369215656,0.0960597974849422
-0.4280714021134615,0.11095246500372746
-0.46563877683681903,0.14220880317449563
-0.14575779891176716,-0.11734109838826398
-0.14780921988232687,-0.11659194752496557
-0.15366760589577483,-0.11445659338175429
-0.46602686379494196,0.12658386842357489
-0.14477169268216655,-0.11770191942509048
-0.14195453390021578,-0.11873746208672517
-0.14399561585307888,-0.11798803023247922
-0.13996703709223318,-0.11946437403469824
-0.4661783633394829,0.11095889375966413
-0.13805029653169112,-0.1201647477453154
-0.13621645668966922,-0.12083590311433476
-0.1298362277373709,-0.12318708234114037
-0.13024729063250418,-0.12303433668709149
-0.46651356216692463,0.09533395008636683
-0.13609854098982999,-0.1208793877766422
-0.13417978697780764,-0.12158883698482537
-0.13219744605694694,-0.1223153026760286
-0.12840543219448478,-0.12373265853836637
-0.4687615704197911,0.09145963629073922
-0.47657634322265496,0.07798807571415772
-0.47444296527148344,0.07971028757756507
-0.12635095354855028,-0.12448331681003963
-0.10691546898194804,-0.13152756522214348
-0.10876351050287349,-0.13085564417505544
-0.4810336341460787,0.07189889933154077
-0.11035267023789633,-0.130282239924619
-0.12430264284736994,-0.1252332175199569
-0.12049463753167983,-0.12662435523794519
-0.11849529223752779,-0.1273486758404763
-0.09700852625925653,-0.13511573242265423
-0.09899148297625826,-0.1343924598588863
-0.10485661866239618,-0.13227564055859947
-0.10280673129526118,-0.13301341268960062
-0.10103935220771178,-0.13364753744747399
-0.4843907607901967,0.0666222006686083
-0.11463067461067603,-0.1287443949932823
-0.11658627449668231,-0.12804031166863805
-0.11270927284473906,-0.12943807364592436
-0.11071880535474225,-0.1301507232157472
-0.1225399457188305,-0.12587946398618502
-0.09508781711276101,-0.13582131489074656
-0.09313471209262918,-0.13653224920642446
-0.48747200635087073,0.06408748539262205
-0.09121841296523839,-0.13723141520460783
-0.08922895962028418,-0.13795537433566568
-0.08727449585678533,-0.13866257749339228
-0.08542912481020362,-0.13933235470353222
-0.0833688900763971,-0.14008610544399852
-0.08132413223452459,-0.14083015635106044
-0.07751060066666779,-0.14222172486447943
-0.07552956619287393,-0.1429422023646006
-0.4922042646380426,0.060672471805964495
-0.07956019250423906,-0.1414744698332004
-0.07360480286913007,-0.14364472552911087
-0.07165669662371922,-0.1443693866591746
-0.07135854026532125,-0.14448239289942136
-0.06396954709722809,-0.1472105885652396
-0.06581079139379829,-0.1465390134808916
0.29614597191176023,-0.0626478606103681
0.2943633317004019,-0.06329722117936294
-0.06975310123715762,-0.14509488723889452
-0.06776387851004109,-0.1458280300004961
-0.06374969318103482,-0.14729486068543746
-0.007201638172279177,-0.1677776089416631
-0.005323666208512322,-0.1684593529104744
-0.007997980762003276,-0.16748905868943292
0.01676020640500057,-0.164267556883065
0.018798351655893532,-0.16352882684965692
0.2786719004956986,-0.06902475983701777
0.28054270619327387,-0.06834136551556319
0.2785280892379469,-0.06907736279618559
0.29804910537770307,-0.06195508288896101
0.2926795881613436,-0.06391084634379243
-0.06191817031173215,-0.1479981978780604
0.012937698945783865,-0.16565738364312238
0.014994436407524816,-0.16490906247228734
0.009034676880519617,-0.1670742087833963
0.009201856478990949,-0.16701359652566924
0.01096528268278992,-0.166374463189815
0.007093214047661677,-0.16777842838884746
0.005214663845671208,-0.1684606608403561
-0.00339832997660877,-0.16915862772450443
-0.0016444819755046282,-0.16979803569396604
-1.1299832221187858E-4,-0.1703604641272349
-0.010836502358464287,-0.16646360024686085
-0.00914515206669864,-0.16707470955774698
0.022708087995646137,-0.16211665179514068
0.024171183432021716,-0.1615886174687088
0.019884259564612063,-0.1631357807949248
0.02087089039232385,-0.16278008515048834
0.27664061517584737,-0.0697745571272487
0.2746906240442234,-0.07049405133151176
0.273510751132423,-0.07093030937399522
0.29995000254398496,-0.061261521893292384
0.29225696745076896,-0.06406534053896842
0.2902516658147253,-0.06479797930193204
0.28640013333945163,-0.06620337569081405
0.2883523777533592,-0.06549010426537957
0.28445993669351727,-0.06691279668175261
0.28249526247645784,-0.06762892270814957
-0.06128040607623132,-0.14825650971831938
-0.019455701347978385,-0.16333715345672256
-0.018911559741191627,-0.16353357872719415
-0.02282114793868018,-0.1621209872102089
-0.02098468234938139,-0.16278643556862424
-0.016872749250845857,-0.16427048351563428
-0.026874665233105385,-0.1606539517876692
-0.026774515382423165,-0.16069004488164165
-0.024775050777129732,-0.16141224373220314
-0.03258643024612088,-0.1586356979869272
-0.03299566609550397,-0.1584942870994345
0.003288858178276223,-0.16916041552916228
0.0015342471931235752,-0.1698017406318455
3.960621786873508E-4,-0.17021696128127092
-5.573716488432193E-5,-0.17038178667589923
-0.015107404606463171,-0.16491319387915782
-0.01305098633515759,-0.16566261407825528
-0.011077221898942663,-0.16637702882362237
0.026664025909130123,-0.1606927828705234
0.02795604120911483,-0.1602302605324609
0.024663507116526307,-0.1614120786999995
0.08533517053809275,-0.13938053814738696
0.08718064582865585,-0.13871104924195518
0.20234490807729166,-0.09686057746617242
0.20048147504796907,-0.09753386283558985
0.19855095142559734,-0.09823634828559764
0.2756447432020984,-0.0701956225049987
0.274872595491331,-0.07045346971340427
0.2746976974065272,-0.07051349543981182
0.3016292127391772,-0.06065011379468753
-0.060065971739739654,-0.1487924050567872
-0.030241922895691206,-0.15945547363915857
-0.028687461516584047,-0.16000740244288428
-0.03064644394813374,-0.15931260770943717
-0.03457972529052374,-0.15796507784315555
0.028576462962626628,-0.1600087536350009
0.08804140771795306,-0.1384001976814478
0.08327440779940734,-0.14013284104919227
0.0812296836435176,-0.14087698438928867
0.19073363290710227,-0.10113714374721341
0.18877933553374202,-0.10184480043674243
0.18732413677109833,-0.10238724411911812
0.1969199157005677,-0.09883407682184961
0.1932921205328461,-0.1002162157949077
0.1927828894737251,-0.10040010697968785
0.20050049156450236,-0.09758613772143315
0.20161226873157412,-0.09718951898704506
0.20244241685978975,-0.09684447117696596
0.19856463539637448,-0.09827396442885775
0.2766672989224402,-0.06984790861644663
0.30330570311672733,-0.06002774176358834
0.28058147364582164,-0.06844793414777867
0.2787056912636132,-0.06911764796046707
-0.05991938639724986,-0.1488606795089531
-0.050233092981487024,-0.15235594093645738
-0.051391700388538894,-0.15195123896893073
-0.048319292259724325,-0.1530448405554441
-0.03502921396660533,-0.15781617790401065
-0.044276413811524445,-0.15468281899428246
-0.04442080659070681,-0.15461788629434992
0.030533571106955024,-0.1593088235304884
0.07503298959182632,-0.14313238954597862
0.07350800568005536,-0.1436851020616155
0.07225516948388627,-0.14414290270664795
0.067658265648536,-0.14584422617168935
0.0657071396970218,-0.14656060084668787
0.0652948928807704,-0.14671652156782625
0.10271909879977192,-0.13307897974784078
0.10476785666541509,-0.1323381104292076
0.0911258045924716,-0.13728330415839907
0.09304293240481495,-0.13658641458149368
0.08913549832106302,-0.13800491853038355
0.0794648323532433,-0.14151879419140573
0.07748260817042828,-0.14224126927320793
0.07741522057841534,-0.14226599558958594
0.07543435529999595,-0.14298693767481335
0.10682932773980686,-0.1315972405302837
0.10777852790307413,-0.13126185905013546
0.11841980754106708,-0.12744767836466647
0.11974669486308828,-0.12697051148664357
0.16338347279321158,-0.11107183516002682
0.1613942293904914,-0.11180199020321072
0.1654233754518753,-0.11032622769464114
0.18831593841123354,-0.10212008117260803
0.19464603964189237,-0.099732309219053
0.17145016242582686,-0.10816186571616272
0.17130003668353222,-0.10821468919675224
0.1692459702342055,-0.10894778015014803
0.16718700309210477,-0.109683980002718
0.18290466043284898,-0.1040619705563392
0.18408143889452103,-0.10366050399489235
0.17710374088786324,-0.10614974769480019
0.17903039606147264,-0.10544506487193518
0.20313028975992292,-0.09663729452048023
0.20245691545748418,-0.09688432666459147
0.25913706756246363,-0.0763774794621484
0.26108671213093065,-0.07565703258340545
0.2572752353702865,-0.077076447429337
0.23766503713234938,-0.08423108765250498
0.239615729009025,-0.08351351974043603
