"Plane Section: Position[X] (m)","Plane Section: Position[Y] (m)"
3.5,0.001802478505203295
3.2700000000000005,0.001824638929011555
3.04,0.0018958770460617766
2.8100000000000005,0.0019976803933938565
2.58,0.002162729500042848
2.3499999999999996,0.0024230384023208487
2.1200000000000006,0.002755935546658674
1.8900000000000001,0.0032091383575367214
1.6600000000000006,0.003969612044331301
1.6549451346277309,0.00399999999999989
1.4300000000000002,0.0052958483870852845
1.2000000000000004,0.006657127132892146
1.1760000000000002,0.0073353405997008
1.1520000000000006,0.007883893766907334
1.1280000000000001,0.00854984996935822
1.104,0.00906389829977624
1.0800000000000005,0.009520696923868373
1.056000000000001,0.009833805414962933
1.0320000000000005,0.010190448260127886
1.0080000000000005,0.010664981543592373
0.9840000000000004,0.011156910013481576
0.9600000000000004,0.011776217910495285
0.952670785157371,0.011999999999999966
0.9360000000000005,0.012504792062288668
0.9120000000000005,0.013236801628382689
0.8880000000000003,0.014173603349651303
0.8640000000000005,0.015323359851458631
0.8400000000000004,0.016564216213339727
0.8160000000000001,0.017764931082340146
0.7920000000000003,0.01897954220771186
0.7748431379963616,0.019999999999999504
0.7680000000000003,0.020421971167089638
0.7440000000000007,0.02202231680561196
0.7200000000000006,0.023783203914913786
0.6960000000000006,0.025743077852434536
0.6742377169584934,0.027999999999998797
0.6720000000000006,0.02825310892155867
0.6480000000000008,0.031376426031874294
0.6240000000000008,0.03491411104955294
0.6184266397310161,0.03599999999999823
0.6000000000000008,0.03937913210946918
0.5784502725942593,0.04399999999999739
0.576000000000001,0.04460363653888327
0.5520000000000007,0.05026972669790851
0.5460997137326707,0.05199999999999703
0.5280000000000002,0.05764911710052903
0.5213874213311045,0.05999999999999599
0.5064436103245583,0.0679999999999953
0.5040000000000004,0.06997607680127713
0.4969896716509097,0.07599999999999468
0.48966612857550385,0.08399999999999398
0.4830220732691195,0.0919999999999929
0.48,0.0981837765787649
0.4789742995720585,0.09999999999999243
0.47771856010175096,0.12166666666665957
0.48075689991134885,0.14333333333332582
0.47999999999999876,0.13611787713892098
0.47999999999999815,0.14786337123054
0.4559999999999977,0.15097218657002867
0.4523860371104775,0.14333333333332593
-0.5460037674469542,0.05199999999999533
-0.5519999999999998,0.05024110895448089
-0.521642340751222,0.059999999999994676
-0.5279999999999998,0.05770565063712916
-0.6182316688766315,0.035999999999996944
-0.6240000000000001,0.03487236859652195
-0.5783959090083459,0.04399999999999598
-0.5999999999999999,0.03936206012000594
-0.5759999999999997,0.044590883124906056
-0.5076921359186595,0.06799999999999373
-0.4970584246039118,0.07599999999999316
-0.5040000000000001,0.07075062752515546
-0.648,0.03135560079655897
-0.487262647089927,0.08399999999999228
-0.6744820086994787,0.027999999999997756
-0.696,0.025750602199566895
-0.6719999999999999,0.028282039420837596
-0.4809808338414566,0.09199999999999162
-0.47775849901639483,0.09999999999999093
-0.48000000000000054,0.09469830480134858
-0.72,0.023707636497567918
-0.4750232272418707,0.12166666666665749
-0.744,0.021893715468415474
-0.4560000000000048,0.142262492052456
-0.7732244151990122,0.01999999999999854
-0.7919999999999999,0.0189147783467313
-0.768,0.02031500930061876
-0.816,0.01764558013683892
-0.8400000000000002,0.016437851093134524
-0.8640000000000002,0.015310421278337455
-0.8880000000000002,0.014257315082936897
-0.9120000000000001,0.013299066462334353
-0.9510395873532268,0.011999999999999452
-0.9600000000000004,0.01171899511661058
-0.9360000000000002,0.012470584439693691
-0.9840000000000002,0.011070078832824478
-1.008,0.010525902301593833
-1.032,0.0100345261501893
-1.056,0.009624114817475366
-1.08,0.009287220977861327
-1.104,0.008895948620937942
-1.1280000000000001,0.008560177702351766
-1.1520000000000001,0.00809822471769316
-1.1760000000000002,0.007612839686484615
-1.2000000000000002,0.0068264894342036486
-1.6550841781163825,0.004000000000000076
-1.6600000000000001,0.003969709885338725
-1.43,0.005328866549661964
-1.89,0.003224746238966303
-2.12,0.0027558609566251404
-2.35,0.002411136803168393
-2.58,0.0021744540261707957
-2.81,0.0020109321428273736
-3.04,0.0018909195383909195
-3.27,0.001823834294642453
-3.5,0.0018120170595811828
-0.3016841253281349,-0.07050144075010444
-0.30001728352412943,-0.0711082133370754
-0.35550463642624947,-0.023272455819515654
-0.354895773749339,-0.02402558741747467
-0.3579826031051002,-0.02011880951603246
-0.2944370493629177,-0.07314089863334415
-0.29621905543120947,-0.07249198259544178
-0.29233045956536535,-0.07390802894552088
-0.2903243538827829,-0.07463858700977392
-0.28842489215490363,-0.07533031348008448
-0.28647189099718023,-0.0760415198309693
-0.2845307671631327,-0.0767483934741766
-0.28256587647111653,-0.07746392433691279
-0.28061287082371755,-0.07817513153368767
-0.30338523570693215,-0.06988058693784382
-0.2981182941777892,-0.07180025114286857
-0.35216111270372785,-0.027932305098527697
-0.34846212563962664,-0.03183918767823811
-0.35159929170980075,-0.028566880563227717
-0.34645133748427887,-0.03379265654929454
-0.3476937203803813,-0.03253607448740077
-0.35941008739084435,-0.018599369321304196
-0.278741382442698,-0.07885664888713434
-0.30342892691380163,-0.0698647290960624
-0.3457409185602535,-0.03442619471332484
-0.34444789394054826,-0.03574612416443014
-0.34268413441542933,-0.03769955079386633
-0.3437881394160806,-0.03644892374319192
-0.36160940840428124,-0.016211939279313293
-0.261082859723612,-0.08528732809896444
-0.2591298559634015,-0.08599854047801113
-0.25726129487031496,-0.0866790108907666
-0.27670685567045794,-0.07959753533187465
-0.2747538508280658,-0.08030874473919766
-0.27296113914836434,-0.08096163975275261
-0.27084785314269033,-0.08173119650446552
-0.26884391628442694,-0.08246097962108101
-0.2649888624363814,-0.08386489013899444
-0.26305043078174645,-0.08457081475175784
-0.30351827293913425,-0.06983503469162335
-0.34183537624869176,-0.038565084854789586
-0.34076800808125085,-0.039653003477858315
-0.3388149157287116,-0.04160646248299524
-0.33988258950005196,-0.0405433429953123
-0.3633156108409852,-0.014350177778638618
-0.3651901964514173,-0.012305076911494671
-0.2552238557341856,-0.08742098525786006
-0.25327085346551237,-0.08813220173269111
-0.2514816366321568,-0.08878385057373879
-0.26694185774608825,-0.08315365455473456
-0.3035598732850556,-0.06982417926713215
-0.3379297949685392,-0.04247608696200781
-0.3368256876198306,-0.043559927667308235
-0.33486665761227474,-0.045513387687775755
-0.3359769983959118,-0.04439689453878723
-0.3672211215377341,-0.010026404464485234
-0.3686906611536591,-0.008398228278877443
-0.23578130230161953,-0.09450159051942666
-0.237646924898958,-0.0938221795270888
-0.24936485863949615,-0.08955466134972087
-0.2473634910990016,-0.09028352726087785
-0.23959991584701135,-0.09311093196566436
-0.30360871803965195,-0.0698126647791807
-0.33294666310185084,-0.04746684103322135
-0.33402421077983085,-0.04637007992864611
-0.3711265203069225,-0.005048079675982706
-0.37155185568951155,-0.0044914889607425065
-0.2317879642521548,-0.09595595570548496
-0.2337409396579473,-0.09524466546475628
-0.23000228733481598,-0.0966063665227652
-0.2278819838326265,-0.09737845488304674
-0.22588317385077986,-0.09810635962924885
-0.2454588784494135,-0.09097716115736827
-0.2435058894812948,-0.0916884141557303
-0.24157015877785182,-0.0923933921563018
-0.30367469760558596,-0.06979769560779138
-0.3320714249882347,-0.04835393487647535
-0.33101393653320854,-0.04942029655583624
-0.37408626127558997,-5.848055231424466E-4
-0.22397601922755822,-0.09880099748737242
-0.22202305211533754,-0.09951231050237652
-0.22009000260495887,-0.10021626642966966
-0.2170836775527357,-0.10131116460446393
-0.21811706294940597,-0.10093478566217445
-0.3038084336574842,-0.06976101683802159
-0.33011863569862343,-0.05031733349442641
-0.3290632531926523,-0.05137375514903636
-0.3270964426459317,-0.05332721649996971
-0.32816584443309216,-0.052269176915143864
-0.37503181249920703,5.535059559861364E-4
-0.21430158144798714,-0.10232487154375586
-0.21616415154115606,-0.10164625164119905
-0.30407663071134844,-0.0696769685248702
-0.32621304905606724,-0.05419697632802333
-0.325098477701143,-0.055280683178272276
-0.32306776415312355,-0.057234155456545636
-0.32426024862473607,-0.0560952181788264
-0.3772627049751678,0.0033219877022486414
-0.21030542669249297,-0.10378067532512462
-0.20852357358910417,-0.10443050654842354
-0.20639987720945607,-0.10520435786125494
-0.20440376212440473,-0.1059316666502978
-0.21225832385023063,-0.10306917021396823
-0.30420801655582963,-0.06965249174769272
-0.3207766635591853,-0.059187672260710505
-0.3223074426165864,-0.057960846899927976
-0.37893718102626306,0.005708686493924482
-0.38027233299537444,0.007228752402344742
-0.20054175428543797,-0.10734043444000768
-0.2024943697282683,-0.10662815573515726
-0.20002175171255995,-0.10752998287677057
-0.3043485015880501,-0.06964100618358142
-0.3203545865799338,-0.05953390930771113
-0.3184016734004028,-0.060772800644140416
-0.31793088637677724,-0.0611412839139517
-0.31553072400863036,-0.06309481936755765
-0.3164488041352258,-0.062268502774620364
-0.3828424978186262,0.011166411090503876
-0.18882578616555082,-0.111613350243531
-0.1907786190718207,-0.11090166869679699
-0.18704764345357378,-0.11226216334849666
-0.18548567796183452,-0.11283171743021249
-0.198611829776012,-0.10804456522266756
-0.19468419306624743,-0.10947805346932239
-0.1928246978607266,-0.11015589745878439
-0.30507187905709815,-0.0693968304356071
-0.30571224271167396,-0.06910436889722431
-0.3056246242892735,-0.06917066534537067
-0.31449597715817756,-0.06401150555997695
-0.31307450049165786,-0.06504836440755593
-0.3858311348480159,0.015042203065389403
-0.18492058074812434,-0.11303797758942032
-0.18292727279243567,-0.11376498642501719
-0.19663679084955618,-0.10876572627114182
-0.30580976650275293,-0.06905032339257272
-0.30668426305350993,-0.06860808294808876
-0.3063599895294281,-0.0689557626384531
-0.3125430976355678,-0.06544722231102258
-0.3904862213775806,0.022855499194134363
-0.4062247291907417,0.046295690803801984
-0.40627396823508094,0.04642937004203846
-0.17713522010261915,-0.1158771341005205
-0.17906236364420247,-0.11517379554863326
-0.17320448338753378,-0.11731053849586057
-0.17515740662015022,-0.11659910498675799
-0.17134771612067762,-0.11798660593323113
-0.18101519992625917,-0.11446212327188574
-0.31059016136255796,-0.06655106317575285
-0.30993464205629917,-0.06700202634835224
-0.30863726245883094,-0.06787343930237291
-0.39065295307187736,0.0231247412720579
-0.3951400600428707,0.030668795109493094
-0.39846346858384973,0.03473067889648798
-0.4014828935117613,0.038482379841052856
-0.408716797278457,0.054108617058841464
-0.451431648989846,0.147865922620744
-0.45313085414001625,0.15236445718789907
-0.16929839172921823,-0.11873273220990077
-0.16724378394052197,-0.1194809152368457
-0.16144846917457573,-0.12159193867279605
-0.16343955143894442,-0.12086683888930963
-0.4113593365233851,0.061921569044276425
-0.44784292919594726,0.13224030872530013
-0.46433936487799454,0.1634931300540033
-0.46875336396057765,0.16692834199042345
-0.15172156598665087,-0.1251342150653358
-0.1498682190787005,-0.12581035773683347
-0.15953357257356035,-0.12228934233456602
-0.15758053805595876,-0.1230004702533124
-0.15565552180100842,-0.12370119857738812
-0.16548025806857436,-0.12012344207135281
-0.4140830188874841,0.06660179450832025
-0.4164766570403986,0.06973494421451139
-0.43078939574672914,0.10098739213349586
-0.4375130400729504,0.11033984436851221
-0.442196849136656,0.11661434302356496
-0.4843804000762102,0.1550224900209753
-0.47738834740735936,0.16349536141528132
-0.1464548783498391,-0.12705765747373343
-0.147816647155889,-0.126559629382863
-0.153674427169047,-0.12442261116532587
-0.4218925649133954,0.08387727863568563
-0.4227930856617505,0.08536102454508504
-0.4843832354339164,0.13844134131347163
-0.4833992871612374,0.13224638882236653
-0.14576614519803463,-0.1273113038566953
-0.14196230549648275,-0.12870608937550423
-0.1440042317255351,-0.12795897595610273
-0.13997484320995096,-0.12943309610014223
-0.48125485784257466,0.11662102189895265
-0.13822988315250914,-0.13007140165033645
-0.48102311609944437,0.10099598204295925
-0.13805849485289928,-0.130134546792966
-0.13610911032393488,-0.1308556976396327
-0.13418922830359903,-0.1315620492511862
-0.13026302019992259,-0.13302481648215797
-0.1284141147789266,-0.13370378703008653
-0.48439099232261035,0.09307911961973275
-0.12636022488624177,-0.13445606201199764
-0.1325422148200148,-0.1321703919165911
-0.13221005780052214,-0.13229722093216945
-0.09899739740478122,-0.14435598727529278
-0.0970147836910858,-0.14508020172442146
-0.10692253502967274,-0.14149425487287282
-0.10877032844958162,-0.1408216525296494
-0.10104565051474569,-0.14361211899522663
-0.11271106128538202,-0.13939027077352056
-0.113088649662768,-0.13925467803720076
-0.11072328804810525,-0.14011031888190512
-0.12431149267403077,-0.13520480522068468
-0.1204989140023497,-0.13658338440125856
-0.11849875815002558,-0.1373054792216619
-0.09583744307140828,-0.14550919788243483
-0.10486188570788221,-0.14223739013063325
-0.10132214026543435,-0.14351186917207553
-0.10281068080088018,-0.14297154433079226
-0.11463437600691873,-0.13870184508996888
-0.1165892872531555,-0.1379958706984642
-0.12254611636558696,-0.13584369458813905
-0.08590883488004648,-0.14912483854462066
-0.08543546407963741,-0.14929704873370958
-0.08514837809204237,-0.14940176945291603
-0.09509275148648191,-0.14578215101485187
-0.09313974208093448,-0.14649334789170443
-0.09122349612403403,-0.14719265988858315
-0.08923376181559416,-0.14791584749266917
-0.08728037473872202,-0.14862600727793465
-0.08337465470533867,-0.15004922148006875
-0.0813302210021769,-0.15079416248089741
-0.0775165763378148,-0.1521854204116823
-0.07553628168359912,-0.1529079294742841
-0.07956624220284939,-0.1514383686665039
-0.07361542723270328,-0.15362118645689957
-0.07307995456433672,-0.15382440040420248
0.29613955699197686,-0.07261597050035597
0.29435683015824754,-0.07326511687039197
-0.0716726471359483,-0.15436047318141888
-0.06976228185727855,-0.15506738332419617
-0.06777171155985956,-0.15579682558079774
-0.06756558399969606,-0.15587415527721785
-0.06582653796272836,-0.1565295397145063
-0.06489823999995996,-0.15690793595438932
-0.003945390924709007,-0.1789284339082877
-0.0034052197666204647,-0.17912476549456363
-0.007208378839102454,-0.17774338791752178
-0.005330499743614157,-0.1784253697280048
-0.0016513428228395674,-0.17976377913301061
-0.0016088666023594035,-0.1797793117137577
-0.008613468222737935,-0.17723396953078976
0.02086268491359162,-0.17274330129216905
0.021127735404158153,-0.17264745663767944
0.016752995421805885,-0.17423350678153068
0.01879077709690407,-0.17349377731873328
0.298042471180387,-0.07192258445612512
0.292995300898946,-0.07376072988450587
-0.06408132704431774,-0.15729907159353865
-0.020989240742022023,-0.1727462393716324
-0.02169807534970005,-0.17248958117519236
-0.03258220850428546,-0.16857139093070422
-0.03274700403347332,-0.16851220489347304
0.01293058036129012,-0.17562358745873846
0.014987383250704847,-0.1748754462120379
0.009027445960986012,-0.1770400984837055
0.010154211717358117,-0.17663114746438646
0.010957891874016464,-0.17633991680925856
0.007086046197638975,-0.17774448314644314
0.005207597281322695,-0.17842699262674727
-6.274081541910744E-5,-0.18034709259913584
-0.011763400230910463,-0.1760950992845002
-0.011083407002663154,-0.17634129729417958
-0.009151545604857945,-0.1770395427105936
0.024655027303628407,-0.17137454078718525
0.025413502421531495,-0.17110072528123776
0.022700078927616198,-0.17208040788893805
0.2999431343204012,-0.07122848924515483
0.29225013515915704,-0.0740323317159524
0.2902449937567441,-0.07476541077613177
0.28639469404341,-0.07617419600340045
0.2883470762744439,-0.07546130334647247
0.284454109834663,-0.07688255163585944
0.28249009817275206,-0.07760049899588639
0.28238862967810113,-0.07763768418107647
0.2786713683840879,-0.07900906977348193
0.2805403028511466,-0.07832053153405531
0.278081597234628,-0.07923222511697933
-0.06403094420652218,-0.15732647191558533
-0.018916916572879857,-0.17349557510448552
-0.022826841431677167,-0.17208390799623108
-0.01687890993100002,-0.17423468730186628
-0.028595858200856923,-0.16999615554677744
-0.026779346474671777,-0.17065059744622174
-0.024780766370207978,-0.17137522518778536
-0.030647478922365218,-0.16926273586706822
-0.034563357536402765,-0.1678674172919959
0.0032818502412261226,-0.179126919373333
0.0015272892670289077,-0.17976850757211665
-0.015114048022956374,-0.17487872325601211
-0.013057408623823534,-0.17562753600240752
0.026655261984065128,-0.17065446400378398
0.028566322813335637,-0.1699666516843676
0.08532806704665137,-0.1493467839085493
0.08717274823313188,-0.14867511207049172
0.20633584187126053,-0.10537323039168164
0.2043382652854435,-0.10609652233849083
0.20137109942153358,-0.1071793237846703
0.2024284207494443,-0.10679176995362938
0.30162189614521906,-0.07061645745372251
0.28055693181198366,-0.07836624354658207
0.2786834739618099,-0.07904234727805813
0.27810212920183625,-0.07925313535577236
0.2781133645019457,-0.07924858046976209
0.2772129386116903,-0.07955951091525477
0.27778232849950824,-0.07935129966330362
-0.06208221273898602,-0.1581675450009834
-0.028690337382994056,-0.16996258583748702
-0.036380883787090354,-0.16723049726932615
-0.042623421553849336,-0.1651132661031178
-0.04254726230785689,-0.1651384554598665
-0.0394928764079358,-0.16615965219401546
-0.03840362846783203,-0.16653363656229536
0.029813792292752876,-0.16951849837798294
0.09111677259664125,-0.147244248635578
0.09181693869701144,-0.14699094827290457
0.08912596217523175,-0.1479644771143096
0.08326677100305024,-0.1500976208039189
0.08122203030944196,-0.15084171868482824
0.07542646785558663,-0.15295102842612185
0.07740754712565293,-0.15223067458886255
0.20635346626827566,-0.10536685534068202
0.2084767572352125,-0.10464671219463076
0.20870565593816842,-0.1045736063108464
0.20048128439475116,-0.10751911183181538
0.1985596230971651,-0.10824595928055905
0.3032991343421272,-0.0699950847314702
0.2812293291029079,-0.0781287689494929
0.29487024228118,-0.07322894652475281
0.29440029819615543,-0.07338388658223499
-0.0615960673127067,-0.15834458161448617
-0.05995810125171577,-0.1589142759156441
-0.056100966830494786,-0.16019392554733988
-0.05660396028911487,-0.1600220586190257
-0.054120168089567586,-0.16090696287151424
-0.052196168399658245,-0.1616196704850003
-0.05165452864152213,-0.16182446294144642
-0.06201055107747863,-0.15819916259518363
-0.03662727218680889,-0.16714536992721
-0.04045928361019269,-0.16583514877496608
-0.04441982917361781,-0.1645624863665705
0.03245671449174552,-0.16857141369054973
0.03418895915465102,-0.16795465841792562
0.030522733905087418,-0.16926480550015532
0.07460887598041788,-0.1532508387256466
0.10270825803570702,-0.14303495211243467
0.10475762749616152,-0.14229576405904718
0.09303482743376738,-0.14654990739728457
0.0794574818768044,-0.15148436102307256
0.10681691768779562,-0.14154889910178467
0.10866682331253118,-0.14088210302561216
0.12245818425894374,-0.13594698826789545
0.12041232029937915,-0.1366903521666835
0.11841398463811462,-0.1374174450340743
0.1633774594883407,-0.12104107830576623
0.16138371800897786,-0.1217588684480786
0.16542077059220525,-0.12030484042878137
0.19074358394400923,-0.11115027200041858
0.18878674278453197,-0.11185093595435028
0.18700604291957534,-0.11249272112453042
0.19658745688852622,-0.1089750194248888
0.1953699908318678,-0.10942480914842499
0.19279543943414712,-0.11042037957047049
0.19366301595879012,-0.11013940043142642
0.1753875310899969,-0.116693960302774
0.17510279722825262,-0.11679391089029345
0.17314550770700554,-0.11749334232468865
0.17128538365747764,-0.11816018241237017
0.16923683740113968,-0.11890844795485789
0.1671845628723334,-0.11966304531774707
0.18488004273317657,-0.11327145769559752
