"Plane Section: Position[X] (m)","Plane Section: Position[Y] (m)"
3.5,0.0018386896722983157
3.2700000000000005,0.0018611187350809993
3.04,0.001933652052876282
2.81,0.0020374132762177558
2.58,0.002205361102922713
2.3499999999999996,0.0024695656353165897
2.1200000000000006,0.002807200408415345
1.8900000000000006,0.003270787856981133
1.6754963210306377,0.003999999999999883
1.6600000000000006,0.0040550569155093285
1.4300000000000002,0.005402218499328792
1.2000000000000006,0.006783422094473705
1.1760000000000002,0.007479691920831514
1.1520000000000006,0.008049078887860252
1.1280000000000001,0.008726122339809003
1.104,0.00924635642111675
1.0800000000000005,0.009707894481891629
1.056000000000001,0.010022438252734876
1.0320000000000005,0.010385666404653847
1.0080000000000005,0.01087341079305663
0.9840000000000004,0.01137344125297324
0.9600794674483235,0.011999999999999966
0.9600000000000004,0.012002166431765118
0.9360000000000005,0.012713623720761374
0.9120000000000005,0.013439881240997585
0.8880000000000003,0.014446982766296182
0.8640000000000005,0.01573808235820218
0.8400000000000004,0.017082640638074964
0.8160000000000001,0.018255496638534558
0.7920000000000003,0.019454413298064473
0.7832413043322095,0.019999999999999466
0.7680000000000005,0.02094374364623062
0.7440000000000007,0.02254252581893739
0.7200000000000006,0.024344768328837744
0.6960000000000007,0.026337557222414223
0.6804865235417801,0.027999999999998835
0.6720000000000007,0.028946937815405804
0.6480000000000008,0.03210450519119361
0.6240000000000008,0.035792878754389724
0.6230017962994443,0.035999999999998256
0.6000000000000008,0.04025925645691948
0.583137544349027,0.04399999999999746
0.576000000000001,0.045710938674832294
0.5520000000000007,0.051573826834113046
0.5505543206254784,0.05199999999999709
0.5280000000000002,0.05918357779409057
0.5257338523536406,0.05999999999999599
0.509815568360292,0.06799999999999537
0.5040000000000004,0.07260310853849226
0.49972188724157335,0.07599999999999474
0.49237506026568084,0.08399999999999401
0.4854106851699222,0.09199999999999295
0.4811897782896233,0.09999999999999244
0.4804611284089011,0.12166666666665962
0.4830775375586701,0.14333333333332587
0.48167543694587733,0.1649999999999929
0.47583973671435453,0.16499999999999287
0.4559999999999978,0.14819471462906447
0.4799999999999972,0.16668528330583124
0.4540617947012749,0.14333333333332599
-0.5503872169037721,0.05199999999999537
-0.5519999999999998,0.0515257238506741
-0.5258867117638493,0.05999999999999474
-0.5279999999999998,0.05922642697355461
-0.6227569976930194,0.03599999999999695
-0.6240000000000001,0.03574153105692391
-0.5830489893873532,0.0439999999999961
-0.5999999999999998,0.04023454553523761
-0.5759999999999997,0.04569340680104826
-0.5106229717077858,0.06799999999999379
-0.5001311624454433,0.07599999999999316
-0.5040000000000001,0.07309865570021531
-0.648,0.03208183419054047
-0.4905867938281406,0.08399999999999232
-0.6806167197795396,0.027999999999997797
-0.6960000000000001,0.02633465624839955
-0.6719999999999999,0.02896881530586048
-0.4834089006033295,0.09199999999999163
-0.72,0.024259232179918
-0.48005681259206956,0.09999999999999096
-0.47851789910198544,0.12166666666665749
-0.48000000000000054,0.10269632773389711
-0.744,0.02240264648485392
-0.4800000000000034,0.12722646303362006
-0.4729055766438254,0.14333333333332468
-0.4560000000000042,0.13656423897993372
-0.7816921731768909,0.01999999999999858
-0.7919999999999998,0.019381320412839846
-0.768,0.02082264324106121
-0.48144246026874665,0.14333333333332482
-0.47942816763029716,0.1649999999999914
-0.8159999999999998,0.01809195215215424
-0.4801904476551697,0.1649999999999914
-0.480000000000008,0.16522070374220965
-0.8400000000000002,0.016888544595482405
-0.8640000000000002,0.015724564446914106
-0.8880000000000002,0.014588681591492115
-0.9120000000000001,0.01356088164147767
-0.9587430151160612,0.01199999999999957
-0.9600000000000002,0.011959584429837423
-0.9360000000000002,0.012711285598092533
-0.9840000000000002,0.011287965908704742
-1.008,0.01072595708573175
-1.032,0.010221832888431155
-1.0560000000000003,0.009805620042739983
-1.0800000000000003,0.009463775639971656
-1.104,0.00906163030338868
-1.1280000000000001,0.008725508678225908
-1.1520000000000001,0.008266011819505217
-1.1760000000000002,0.007760556892973956
-1.2000000000000002,0.00695401195586621
-1.4300000000000002,0.005437451646819297
-1.675972917047368,0.004000000000000076
-1.8900000000000001,0.0032866910652319427
-1.6600000000000001,0.0040555882387533545
-2.12,0.0028076473948223015
-2.35,0.002457529589091777
-2.58,0.0022171651160447694
-2.8100000000000005,0.002050798040632887
-3.04,0.0019287070144075357
-3.2700000000000005,0.0018604309019005071
-3.5,0.0018483968277993007
-0.301685076994674,-0.07199671437572355
-0.30001822832135094,-0.07260347677173756
-0.35550549266311343,-0.02445781194768577
-0.3546133913542374,-0.025520860141597653
-0.3578370778335123,-0.02161405637186537
-0.2944379966760167,-0.074636168155888
-0.2962200022936786,-0.0739872508966624
-0.29233140833850996,-0.0754033024716506
-0.29032530413588276,-0.0761338646004861
-0.28842584202723853,-0.0768255900255199
-0.28647284065354695,-0.07753679578338228
-0.2845317174356331,-0.07824367111852881
-0.2825668273403303,-0.07895920361987142
-0.2806138222667187,-0.07967041239228835
-0.30338619514591914,-0.07137586106422619
-0.2981192403977699,-0.07329551776010841
-0.351820514623399,-0.029427589913875174
-0.34793649066828675,-0.0333345071055641
-0.3516001409002235,-0.02968764255912697
-0.3459849963381635,-0.03528796733013706
-0.3476945511593669,-0.033531976364057386
-0.35941096495386265,-0.019929688952448746
-0.27874233432006223,-0.08035193093852523
-0.3034235337120452,-0.07136231221285319
-0.3457417666827784,-0.035514655738357326
-0.344153365719019,-0.037241406966479075
-0.3424489234192885,-0.0391948247564917
-0.3437890051036491,-0.03763064307644221
-0.36148390638354194,-0.017707179921712085
-0.26108381712553413,-0.0867826253206877
-0.2591308138001862,-0.08749383889387523
-0.25726225316152057,-0.08817431055446001
-0.2767078085080084,-0.08109282001997925
-0.2747548043804613,-0.08180403139028503
-0.27296209352975576,-0.0824569286801586
-0.2708488084077678,-0.08322648785853798
-0.26884487193956513,-0.08395627204622005
-0.2649898195313722,-0.08536018651790485
-0.26305138782648907,-0.08606611099265005
-0.3035183156151137,-0.07133062938667287
-0.3418362552902297,-0.03981512981565585
-0.340531772864976,-0.04114827908205122
-0.338606316306304,-0.043101734834277226
-0.3398834716385989,-0.04180261203317971
-0.3633164927089695,-0.015724476971214218
-0.36509706894037974,-0.013800309254154383
-0.25522481478055137,-0.08891628699520591
-0.2532718135544005,-0.08962750633280786
-0.2514825973360133,-0.09027915686239711
-0.2669428142926208,-0.08464894942762342
-0.30357027406274706,-0.07131594565598494
-0.3379306875422313,-0.04378750501947616
-0.3366973587753356,-0.04505518775257339
-0.33480412958877603,-0.04700863796930696
-0.3359779071297941,-0.0457938457080762
-0.3672220027259857,-0.01141599460177567
-0.3685984465557903,-0.009893457787184914
-0.2357822683451986,-0.09599691147051405
-0.23764789072614723,-0.09531749988400487
-0.24936582016850495,-0.09104996990434765
-0.2473644533459465,-0.09177883778688198
-0.23960088154805248,-0.09460625197625616
-0.30364973710835846,-0.07129297673276717
-0.3328935836875627,-0.0489620911604271
-0.33402512777186966,-0.047806325726977475
-0.3711273498610741,-0.006159221120117592
-0.3712508196942406,-0.005986752148317867
-0.2317889324484767,-0.09745128256774378
-0.23374190718340135,-0.09673999048498677
-0.23000325431972335,-0.09810169005819319
-0.2278829508893152,-0.09887377861569192
-0.22588414275418617,-0.09960168843297873
-0.2454598421007318,-0.09247247553970725
-0.2435068545850802,-0.09318373252646553
-0.24157112424702493,-0.09388871153028183
-0.3037287689996143,-0.0712728922622704
-0.3320723441470717,-0.0497939641887983
-0.3309648570442136,-0.05091554747433895
-0.3738517737649647,-0.002080055341369817
-0.22397699053735454,-0.10029633289882006
-0.22202402320448558,-0.10100764530768637
-0.22009097251325874,-0.10171159799234178
-0.2171944714387633,-0.10276649976121457
-0.21811803356890402,-0.10243011917770911
-0.3038484756928821,-0.07124125978499463
-0.330119558032552,-0.0517671076381883
-0.32902312709326353,-0.05286900602174385
-0.327056859394978,-0.05482246878384056
-0.32816676909299825,-0.05372380383746041
-0.3750326714294644,-7.535995181720452E-4
-0.2143025542025574,-0.10382021092091012
-0.21616512964674206,-0.10314160571300479
-0.30401708241261555,-0.07119605444019897
-0.3262139757566681,-0.055654902178752644
-0.32506831438506156,-0.056775935372371744
-0.32303910911647327,-0.05872940894485322
-0.3242611784057233,-0.05756262759924948
-0.3772620400066272,0.0018267804759784828
-0.2103064069426465,-0.10527603528407482
-0.20852455458633726,-0.10592586855687947
-0.2064008538402656,-0.10669970787846814
-0.20440475114980458,-0.10742705070234654
-0.2122592971038705,-0.10456451096111653
-0.3042322554554903,-0.0711382798725498
-0.32068938761358196,-0.06068293757036961
-0.32230837406484786,-0.05942965802295769
-0.37893806043538814,0.004259403891681104
-0.38023013288030505,0.0057335403440186665
-0.20054274906549457,-0.1088358342894388
-0.20249536656378503,-0.1081235612314341
-0.20021040142571284,-0.10895698046490285
-0.30467696593502663,-0.07099830561062942
-0.3203555097888298,-0.060947748764267784
-0.3184025983865837,-0.06219147278503011
-0.31785218215888406,-0.06263654992790808
-0.3155160847118648,-0.06459007621330791
-0.31644974043397145,-0.06374637812724396
-0.3828434630023515,0.009193455551898735
-0.3832056467725914,0.00964030148672135
-0.18882680387448664,-0.1131088130424921
-0.19077962826944966,-0.11239710812473908
-0.18704866003492288,-0.11375762304841079
-0.18573447409103816,-0.11423682440614402
-0.19861284373111254,-0.10954001772417989
-0.19468519346668814,-0.11097346874292374
-0.19282569703807617,-0.11165130937233306
-0.30539515755899793,-0.07075064241207134
-0.30566618736757933,-0.0705963811472329
-0.30558030004743364,-0.07067391722031859
-0.31449691599873475,-0.065496420114541
-0.31304226397128443,-0.06654362615456046
-0.3862673440426382,0.013547077432590156
-0.1849216320537377,-0.11453353263995089
-0.18292832876500492,-0.11526055428870736
-0.19663780418839347,-0.11026117707635276
-0.30577888954225146,-0.07052578485340898
-0.30668518890073987,-0.06999689096992344
-0.30623597801233127,-0.0704510452846038
-0.31254403424451366,-0.0669127535890693
-0.3905605814972806,0.021360314969896408
-0.1771362809436582,-0.1173727153270096
-0.17906339071971974,-0.11666928405791047
-0.1732054722173607,-0.11880592197472675
-0.1751584202074234,-0.11809455645033339
-0.17134870068286157,-0.11948197769332064
-0.18101623166631348,-0.11595762459111654
-0.31059109782684236,-0.06801083895747755
-0.3098896730489285,-0.06849729268384674
-0.3086382021177563,-0.06934592783903715
-0.39065384700191513,0.021513383757422268
-0.39508741081285864,0.029173592629786922
-0.39846433136872417,0.033248978424880456
-0.40155052200649144,0.03698720287249079
-0.4062749693874865,0.04409001851783545
-0.40947677333412,0.0526135645447027
-0.4067954239073445,0.044800603871140245
-0.45286868132809077,0.14637101907939007
-0.45313226898928355,0.14714494872398876
-0.16929937796918598,-0.1202281085775466
-0.16724477876048083,-0.12097631516529703
-0.16144946856387185,-0.12308735114748107
-0.16344055022116172,-0.12236224969698958
-0.4119193635104449,0.06042648420810552
-0.4491737465847314,0.1307453841935035
-0.4632684893860539,0.1619978056187054
-0.4687537490405803,0.16763927010985344
-0.15172259311888991,-0.12662970372223126
-0.1498692630040063,-0.12730589250509136
-0.15953455661482763,-0.12378471266327562
-0.15758151266363768,-0.12449581467750219
-0.15565650164359332,-0.12519655737729768
-0.1654812568374452,-0.12161885284289607
-0.41408397963306665,0.06440787929967333
-0.41674333437115285,0.06823981290611139
-0.43092824525200707,0.09949224981890939
-0.43751394176785063,0.10829499678737978
-0.4427693406097365,0.11511928391897547
-0.14672203047761723,-0.12845611365311546
-0.14781774009936743,-0.12805529875095595
-0.15367542518903646,-0.1259180198806297
-0.4218934599791988,0.08198883615782665
-0.42302740989811055,0.08386589251223507
-0.14576748095242825,-0.12880763997550257
-0.14196342704525344,-0.1302018372635177
-0.14400534624631917,-0.1294547045525824
-0.1399759862658952,-0.13092890304024957
-0.4843876211850874,0.11598739402363145
-0.48428725079452944,0.11512641518620735
-0.13865646445432145,-0.13141180647165054
-0.48438806017261593,0.11343162880237456
-0.13806011526100329,-0.13163166453919195
-0.13611042567480247,-0.1323519776721021
-0.13419074667604944,-0.13305888676776664
-0.13026429350407864,-0.13452098096956852
-0.12841544385191622,-0.1352001046473561
-0.12636157582033986,-0.13595243965100678
-0.1329608373144308,-0.13351369998942747
-0.1322133115850209,-0.13379882387671455
-0.09839081735021162,-0.14607513636020422
-0.09899798256133453,-0.14585026221750755
-0.09716864942816236,-0.14652020685351977
-0.0970157108956687,-0.1465754159291765
-0.10692337487295883,-0.14298922913624515
-0.10877138798947486,-0.14231723008140307
-0.1010463823806406,-0.14510679679844388
-0.11271169809121279,-0.14088468748569644
-0.11339397949112291,-0.1406392601574716
-0.11072427482492833,-0.1416056966258491
-0.12431230970789003,-0.13669971675887257
-0.12049936561788409,-0.13807729251782805
-0.11849926563809382,-0.1387995407779602
-0.09545513964271946,-0.1471442067407236
-0.10486229176695887,-0.14373117323365966
-0.10176503653005747,-0.14484636462775408
-0.10281152558996008,-0.1444665322175759
-0.11463450761324163,-0.1401948744942593
-0.11658991796742366,-0.13949027064553565
-0.12254658853438892,-0.1373376591319403
-0.08625352452468858,-0.15049511074170163
-0.0854364271993525,-0.1507923615616134
-0.08484282243295846,-0.15100883873648627
-0.0950935109154788,-0.14727690450199646
-0.09314060046677844,-0.14798837311534863
-0.09122427401498232,-0.14868746406934963
-0.08923455187103109,-0.14941068508018493
-0.08728132810243402,-0.15012129331406046
-0.08337549779006724,-0.15154420468717014
-0.081331143257044,-0.15228936308905933
-0.07751753780843981,-0.1536807287015191
-0.07553742338448813,-0.15440373267531998
-0.0795671836568757,-0.15293362199190366
-0.07361759898703887,-0.15511981816578396
-0.07333712549294952,-0.15522655495379895
0.2961386557310565,-0.07411181490735663
0.29435583325828796,-0.07476070306270428
-0.07167456939934179,-0.155858419718991
-0.06976349311885949,-0.15656337742034632
-0.06777330413412369,-0.15729386675571305
-0.06774372894575022,-0.15730509309318796
-0.06583291026139274,-0.15803970600770276
-0.0653779886225854,-0.1582290426663588
-0.004025783451921591,-0.18039502478599156
-0.0034062334954274355,-0.18062020848854723
-0.007209372162190452,-0.17923878143188593
-0.005331504353796233,-0.1799207916659401
-0.0016523593388554762,-0.18125920444665877
-0.0015616466785572296,-0.18129237657347227
-0.008713378999956209,-0.17869344850768715
0.020861547427938686,-0.1742385001288413
0.021303814487611962,-0.1740785425789838
0.016751950351205774,-0.1757289596520068
0.018789688308784913,-0.17498911001549455
0.2980416411401938,-0.07341859564566008
0.29289789882276834,-0.07529153705945175
-0.06455098430079674,-0.15862385395916243
-0.020990003664777924,-0.17424100249838406
-0.022007526583760127,-0.1738727415730345
-0.03328651201042839,-0.16981157717421183
-0.03258239016588681,-0.17006455781021884
0.012929528474301243,-0.17711902157299791
0.01498634533305623,-0.17637091874287616
0.009026381394447884,-0.17853549695243914
0.010324172752539242,-0.1780644495027175
0.010956798044648507,-0.17783523531093393
0.007084998509547023,-0.17923992719393184
0.005206561475581358,-0.17992246921646224
-6.377037430432082E-5,-0.18184242893127106
-0.011907253328335615,-0.17753857329059028
-0.011084332019766002,-0.17783650524626018
-0.009152479216175385,-0.17853477301393125
0.024653850694351345,-0.17286963209782544
0.025588435522336635,-0.17253223181112703
0.02269889394176266,-0.17357547616168373
0.29994222673213655,-0.07272429486195732
0.2922492326602503,-0.07552817644086263
0.2902444548455939,-0.07626225495493048
0.2863939901850177,-0.07767058690985118
0.2883463629976663,-0.07695766834661916
0.28445350259270996,-0.07837920814174676
0.28293206127101106,-0.07893536243112627
0.2786723892907288,-0.08051020202080864
0.2805400545723188,-0.0798181748403944
0.27854033574511694,-0.08056070891717396
-0.06405280377566382,-0.15887916610287736
-0.01891771716966116,-0.17499044169546116
-0.022827627295833118,-0.17357873410588853
-0.01687985301020676,-0.1757299451567501
-0.028837762447529787,-0.17140390820775547
-0.02869088993586506,-0.17145677124279615
-0.02678015807559403,-0.17214549421658148
-0.024781565986627598,-0.1728700890552711
-0.030647961725170203,-0.1707567297109914
-0.03456285940642027,-0.1693587174205179
0.0032808229894617557,-0.1806224220608136
0.0015262658957356748,-0.18126403579097683
-0.015115026964129917,-0.17637407958347043
-0.013058337562795359,-0.17712275498322272
0.02665400485683372,-0.17214933399078194
0.028565014293970934,-0.17146138041267567
0.08532700809391003,-0.15084219874246094
0.08717172368381823,-0.15017062147627552
0.20633436283015716,-0.1068674905223345
0.20433718049170216,-0.10759186622689082
0.20198977880141508,-0.10844955853806257
0.2024279665363697,-0.10828884727549046
0.3016210059881568,-0.0721122689552463
0.2824898948633368,-0.07909826589814178
0.28055561175615334,-0.07986094070425045
0.2786804112385796,-0.08053225392513894
0.2781100610573067,-0.08073782538416628
0.27768566662824756,-0.08088270217396787
0.2782549463960898,-0.0806741882058383
-0.06242352431145952,-0.1595390681131006
-0.03662471500494306,-0.1686310158172792
-0.03695742995489456,-0.16851637841000125
-0.04353732655120282,-0.16627628768140315
-0.042537641575231225,-0.16660470445847742
-0.0401751896786556,-0.1674070140044077
-0.03840068450289113,-0.1680182202684801
0.03008097468241448,-0.1709164506609845
0.09111542496050667,-0.14873886990117624
0.0923198195633061,-0.1483032128559673
0.08912473310628752,-0.1494594243063849
0.08326566541905184,-0.15159290745308016
0.08122095734701967,-0.15233709500951972
0.07542572458315631,-0.1544473110530651
0.07740644765012358,-0.15372597803325738
0.206976841942485,-0.10663538601076131
0.2084716711884409,-0.10613105697012959
0.20911262995988544,-0.10592086066927112
0.20048278479315151,-0.10902156231575838
0.19856090449802213,-0.10974780781043118
0.30329814099633656,-0.07149077845157298
0.28310223626946884,-0.07894281523122818
0.28250670035306213,-0.07914182351765409
0.28250584897890385,-0.0791421229060349
0.28250598397066146,-0.07914249399113543
0.2827691222779033,-0.07906399401596786
0.2825112644991885,-0.0791570098808033
0.2817963087928021,-0.07941787995005545
0.29618284050347754,-0.07422990355771263
0.29439485970206325,-0.07486734160100572
-0.06151786720836427,-0.15986887651861936
-0.05994973531625737,-0.16038397035532587
-0.05609999163423729,-0.16168391529080015
-0.05719624277395238,-0.16130219167404863
-0.054121949122542534,-0.16240452126452662
-0.0525013502955684,-0.16301190608702631
-0.062016483560090735,-0.15970812056128297
-0.040454351769785395,-0.1673142736506665
-0.04440617063348999,-0.16601764728422747
0.034435421921265676,-0.16935907015291363
0.03453695198686835,-0.16932321760435695
0.03245509969543658,-0.17006530052200053
0.030521220346942983,-0.17075897060856365
0.0749871203445951,-0.15460842814141015
0.102706730007452,-0.14452907750534874
0.10475594176924913,-0.14378945596010562
0.0930335798777416,-0.1480448037848843
0.07945640884826895,-0.15297973716758173
0.1068156026960079,-0.14304361013855638
0.10866517287333356,-0.14237589194838873
0.12245700492458159,-0.13744207240467568
0.12041163403793657,-0.13818679173263598
0.11841182117324262,-0.13890982384734557
0.1633753571281487,-0.12253362505105697
0.16138197973225984,-0.1232524160235724
0.165418397638378,-0.1217966433415475
0.18878375832382177,-0.11334105796437141
