"Plane Section: Position[X] (m)","Plane Section: Position[Y] (m)"
3.5,0.00822125340681016
3.2699999999999996,0.008297535355555294
3.04,0.008633093981338325
2.8100000000000005,0.00915698717994097
2.58,0.009974037000990435
2.3500000000000005,0.011290428913465059
2.2638053075260274,0.01199999999999977
2.12,0.013182968070072108
1.8900000000000003,0.014827478728298869
1.6600000000000004,0.018116696546640824
1.5611286399008704,0.019999999999999903
1.4300000000000002,0.02231038094191195
1.2000000000000004,0.02393613764765106
1.1760000000000004,0.024791086342424936
1.1520000000000004,0.027178407099627565
1.1467671630417993,0.027999999999999935
1.1280000000000006,0.0307154515710667
1.1040000000000005,0.034390520099315106
1.095378514372623,0.03599999999999953
1.0800000000000003,0.03871251832589684
1.0560000000000003,0.042010164012387816
1.0320000000000005,0.04387148532185873
1.0299467294121758,0.04399999999999914
1.008000000000001,0.04543128123844843
0.9840000000000009,0.047438018368363
0.9600000000000007,0.049170758980851506
0.943336807952392,0.051999999999998735
0.9360000000000005,0.055317180885741835
0.9259058350169602,0.059999999999998284
0.9120000000000006,0.0638016336814996
0.8880000000000003,0.06556119767824561
0.627666090478892,-0.01199999999999875
0.6240000000000002,-0.01309770535596952
0.6554158764220275,-0.003999999999999079
0.6480000000000007,-0.006285365101478627
0.6812791444236681,0.004000000000000271
0.6720000000000006,9.886626086141623E-4
0.7040109167947536,0.011999999999999808
0.6960000000000003,0.009138769611816462
0.7274257833811957,0.019999999999999497
0.7200000000000002,0.01757743986856986
0.7459497339832302,0.02799999999999915
0.7440000000000009,0.02715204390533512
0.8640000000000007,0.06781002561077151
0.5668365992744153,-0.027999999999997353
0.552,-0.03139364888347908
0.5983078950623653,-0.01999999999999797
0.5760000000000003,-0.025766909345212932
0.6000000000000005,-0.019504915183033704
0.7608561374347809,0.03599999999999866
0.7792585515612271,0.04399999999999825
0.7680000000000011,0.03896478139330981
0.7981945501401226,0.05199999999999791
0.7920000000000007,0.049565503730051766
0.8179720357337159,0.059999999999997805
0.8160000000000003,0.05941938049809056
0.8400000000000003,0.06595872763901815
0.5272792071790136,-0.03599999999999638
0.504,-0.03958649121861113
0.5279999999999998,-0.035872641899115806
0.46893510731507126,-0.043999999999995494
0.4560000000000003,-0.04525473896445567
0.48000000000000037,-0.04301188532740466
-0.4633397004757605,-0.0439999999999969
-0.45600000000000007,-0.044911625440294256
-0.4800000000000002,-0.042134196997692386
-0.5040000000000002,-0.038278855004428264
-0.5169856600255002,-0.03599999999999799
-0.5280000000000001,-0.03398524620510186
-0.5519999999999998,-0.028875156133369696
-0.5554043626142194,-0.02799999999999873
-0.5759999999999997,-0.023265914649942827
-0.5897839799329039,-0.01999999999999924
-0.5999999999999999,-0.017507320182765324
-0.6240000000000001,-0.012360591002839746
-0.6255397492673003,-0.011999999999999934
-0.6479999999999998,-0.007391858068302443
-0.6641979769262614,-0.0040000000000002655
-0.6719999999999998,-0.0022653281064958673
-0.6960000000000002,0.0029269499095294516
-0.6997799690890971,0.003999999999999233
-0.7200000000000003,0.009834520513080407
-0.7264497823071192,0.01199999999999888
-0.744,0.01981212739351112
-0.7444250336735712,0.019999999999998602
-0.7597376746962392,0.027999999999997974
-0.768,0.03314021938908886
-0.7724791613079065,0.0359999999999978
-0.7835761944397654,0.0439999999999974
-0.7919999999999999,0.050538441470490705
-0.7938921159262482,0.05199999999999723
-0.8044535063303008,0.05999999999999682
-0.8159999999999998,0.06489388724741166
-0.827357729128132,0.06799999999999673
-0.8400000000000001,0.07079294231229472
-0.9223475616250554,0.051999999999998034
-0.936,0.04976141353068318
-0.9092586121916919,0.059999999999997736
-0.9119999999999999,0.057405503108297326
-0.864,0.07150594994838672
-0.96,0.04882916288699955
-0.9017155640747064,0.06799999999999749
-0.8879999999999999,0.07015332811623129
-0.9840000000000001,0.04846130884489702
-1.008,0.04779647317604199
-1.0485207278864266,0.043999999999999234
-1.056,0.04295869751809571
-1.032,0.04633303559927256
-1.0914983485654064,0.03599999999999961
-1.1039999999999999,0.03308278906910028
-1.08,0.03862939097348646
-1.1322452137898202,0.027999999999999928
-1.1520000000000001,0.025066072062276935
-1.1280000000000001,0.02866956881496268
-1.1760000000000002,0.02199891877809479
-1.2000000000000002,0.022194669578162202
-1.6030750215330636,0.020000000000000174
-1.6599999999999997,0.01898825715353472
-1.4299999999999997,0.02273496412808191
-1.89,0.015438803986438397
-2.2440625811331265,0.012000000000000205
-2.35,0.01096633223828301
-2.1199999999999997,0.013235792024923412
-2.58,0.009991430033638404
-2.8099999999999996,0.009384963647997294
-3.04,0.008652460726512084
-3.27,0.00818556395328432
-3.5,0.008098067266822653
-0.25789399220148074,-0.1484788121571916
-0.2618002421416253,-0.1484795460286445
-0.2539877422119378,-0.14847849108307812
-0.2617178390276602,-0.14846838138945237
-0.26180024346398967,-0.1484684954615786
-0.2657064922028609,-0.14847926712376325
-0.25008149214651226,-0.14847880412035774
-0.25789399413346586,-0.1484626671988138
-0.26570649317848305,-0.14847111418050593
-0.2696127423725557,-0.14847805492909832
-0.2422689921375288,-0.14847841261650016
-0.25398774429748094,-0.1484610628617148
-0.23445649223109175,-0.1484771639607926
-0.261650369901864,-0.1484394046097134
-0.26180024688350034,-0.14843991969927275
-0.2696127433063346,-0.1484702517614867
-0.2717477087433005,-0.14847730659939817
-0.2500814941152316,-0.14846235216626052
-0.21883149226309287,-0.1484759624387435
-0.226643992287474,-0.14847622579122627
-0.2578939987551525,-0.1484240452363602
-0.2657064960114252,-0.1484474401848287
-0.2700393852937692,-0.14846937718504816
-0.2735189928003465,-0.14847443611671993
-0.24226899419432957,-0.14846122458492017
-0.25398774928534285,-0.14841938090189327
-0.2032064925241086,-0.1484728472349872
-0.21101899230990365,-0.1484751043002476
-0.2344564946141861,-0.1484572491986443
-0.19143705882290735,-0.14846769624708292
-0.19539399284431327,-0.14846970447930352
-0.26961274657094136,-0.1484429708454258
-0.2735189938561631,-0.14846561433206412
-0.27742524192307816,-0.1484755408305588
-0.25008149877205677,-0.14842343655619056
-0.21883149461670615,-0.1484562940522393
-0.22664399478760497,-0.14845533299170374
-0.18758149338270713,-0.1484647381236207
-0.2793783659226329,-0.14847626877025571
-0.26339230747985826,-0.14837443346956042
-0.2657065021385272,-0.14839623795895826
-0.2713681755867054,-0.14844056748831685
-0.2774252440204455,-0.14845867352941886
-0.2422689992523297,-0.14841895648304188
-0.2056513134661067,-0.1484500847213289
-0.21101899470147173,-0.1484551187338468
-0.23656393586200447,-0.14841033081287638
-0.1797689940317986,-0.1484588469808573
-0.17934743934517125,-0.14845852455773334
-0.28133148623968496,-0.14847666231566678
-0.2642363522732126,-0.14831587284217285
-0.2696127528046298,-0.14839087860347452
-0.27351899735008556,-0.14843642106904142
-0.2774252440312472,-0.1484579834546302
-0.25584857914283854,-0.14822687667689027
-0.2539877663902329,-0.14827644078255894
-0.20320649632232396,-0.14844110676592673
-0.2237780851981787,-0.14840880079749763
-0.2188314994297225,-0.1484160731998063
-0.23445650082832734,-0.14840531959695813
-0.19911680813274316,-0.14843192154786955
-0.17195649483292236,-0.14845168518615773
-0.27937836891130274,-0.14845147492476335
-0.2832846062683343,-0.14847427480337194
-0.26570651689358077,-0.14827293474662112
-0.27326148571625597,-0.14837561446211991
-0.27742524700616117,-0.14843320776109908
-0.2500815153580901,-0.14828483235379147
-0.2539877786229421,-0.1481742159346236
-0.20320649850956135,-0.14842282871765153
-0.2110189983266352,-0.14842482439403346
-0.22664400110709926,-0.14840252298884352
-0.1939703261286008,-0.1484052338600288
-0.1953940001632785,-0.14840854221686084
-0.19592129520073856,-0.14840546732221807
-0.15633149558722148,-0.14844444771680174
-0.1641439953206484,-0.14844714236280981
-0.279378371082543,-0.1484334628441813
-0.2813314895193613,-0.1484499734135013
-0.28403012477832806,-0.14847105138312514
-0.26544137965479714,-0.14809603592977613
-0.2657065326773384,-0.14814103495680753
-0.26619174370006043,-0.14822811438889252
-0.27351900476482066,-0.1483744680465686
-0.24370454880905504,-0.14822542346476525
-0.25176624775930184,-0.14809439949879483
-0.18780567340558132,-0.14836538841533023
-0.18758150477691043,-0.14836952040728507
-0.19539400078410196,-0.14840335419425105
-0.14851899565273793,-0.1484434332202943
-0.14070649566154933,-0.14844289256331702
-0.1250814953279515,-0.14844474611954542
-0.13289399560606394,-0.14844288928962043
-0.10466821589424508,-0.14844958808855158
-0.10164399458706856,-0.1484495367532377
-0.2813314917991671,-0.14843141512777788
-0.2832846091727056,-0.1484511440882826
-0.2838024386688696,-0.1484594366547025
-0.2645880793415414,-0.147897950819316
-0.2774252555924928,-0.14836169922980846
-0.24226902699283853,-0.14818713789524662
-0.2500815476011337,-0.14801538752560486
-0.23926959208456894,-0.1480929040898581
-0.18575963966403175,-0.14836514357725258
-0.18758150545929175,-0.14836381796468398
-0.10945649466037863,-0.14844939111754482
-0.11726899489366685,-0.14844790865006413
-0.09383149454546062,-0.14844941742577755
-0.2793783791034203,-0.1483669240351983
-0.2832846125706163,-0.14842408277207952
-0.2648245531748686,-0.14715554286499125
-0.26435121893673125,-0.147600947974719
-0.26570669116798123,-0.1468165796677021
-0.2475980164530717,-0.1478959177080089
-0.23445655266906423,-0.14797210309536452
-0.08601899454036463,-0.14844899302688247
-0.07820649456040855,-0.1484483585121225
-0.06647454634271648,-0.14844501765335869
-0.07039399467400231,-0.14844694223887991
-0.2813314991314786,-0.14837174776719025
-0.2835625931813032,-0.14841595489456053
-0.2670015637357963,-0.14648761074966077
-0.2696131717909725,-0.1448895705057946
-0.24577043424719403,-0.14759872451011624
-0.22830342616855892,-0.1478936088260578
-0.06258149517658333,-0.14844227521794318
0.05434743583747295,-0.14841897204093785
0.0546060028937668,-0.14841914488295338
0.06241850323328313,-0.14842151512451407
-0.2832846190892859,-0.1483721684808209
-0.28349014136038225,-0.14837683847144648
-0.2735194795231958,-0.14440735422169731
-0.24535451977980663,-0.14715321298868103
-0.21883158899287436,-0.1476676225043752
-0.2266440649290934,-0.14786918293957885
-0.15633152034826298,-0.14823752758872152
-0.1641440212934632,-0.14823009583398672
-0.16649348062203845,-0.14821618402306283
-0.05476899586607001,-0.14843604654491926
-0.046956496316445905,-0.1484318158848713
-0.04577729981012071,-0.14843095344049448
0.03898100140411843,-0.1484076303744064
0.03116850145812837,-0.14840854872201353
0.046793501933530476,-0.14841158748282496
0.021350860524204325,-0.14840553934361014
0.02335600131510663,-0.14840782052516577
0.07023100341025645,-0.1484225270370793
0.07804350350203437,-0.14842282697868037
0.0936685030441351,-0.1484180664218615
0.08585600345729022,-0.14842198606481039
-0.2774257270839078,-0.14442797197170465
-0.24486731588604882,-0.14648496206084527
-0.21684974172926363,-0.1475952637232308
-0.1461392250902711,-0.14821374833654954
-0.14851902073654355,-0.14823381585017897
-0.16040506809490068,-0.1480834667878111
-0.16414402735938982,-0.14817940482015446
-0.023518998026079034,-0.14841612803188056
-0.031331497858499605,-0.14841799537771183
-0.016760420514157263,-0.14841009991980286
-0.03914399717909782,-0.148424139979915
-0.007894001478303077,-0.1483863448892957
-0.01570649888555737,-0.1484084786187984
-0.0061467391672881885,-0.148382758001019
0.015543499430085879,-0.1483925350220991
0.09827311881627482,-0.1484137156859024
-0.27937879188510223,-0.14493115104084447
-0.24439745516096523,-0.14230832735140272
-0.20895692341401823,-0.14714885748010736
-0.21101913465533695,-0.14728556890761194
-0.14133299463567792,-0.1480811845332736
-0.1563315474816038,-0.1480107829031233
0.01057180077291661,-0.14838075738143688
-8.150485341232959E-5,-0.14835767319274848
0.10148100206594537,-0.14840942500953622
0.10929350155951253,-0.14840472592350978
-0.28133185161255825,-0.14547672944051193
-0.24227015090022563,-0.1387950022428917
-0.2034976378546005,-0.14648001156945512
-0.23828167175048592,-0.13449509545194166
-0.14070654191148732,-0.14805639658044376
-0.15052382932677227,-0.14788430135152295
-0.1362273863267715,-0.14788259057151965
0.007730996368164475,-0.14836741452247523
0.11710600145053798,-0.14840334821877912
0.1249185013535039,-0.14840207039706177
-0.28328494472076393,-0.14574335585081039
-0.30171987899868014,-0.14971703664937652
-0.3010183254693592,-0.14997285273149075
-0.2032067588839606,-0.146246962877753
-0.23445845694394624,-0.13205868510964963
-0.1991273289116151,-0.14230291011392565
-0.14320071433322115,-0.14758645053218003
-0.14851907069754583,-0.14781630770216364
-0.12657210536060923,-0.14758446067415926
-0.132894074573639,-0.14778298244872082
0.13273100126471765,-0.14840086141682696
0.14054350120117848,-0.14839986345875816
-0.30241295406282426,-0.1494630740588671
-0.28523803895989647,-0.14600053137926142
-0.30496204977603336,-0.1484917604306766
-0.30502735406043147,-0.14849216120493497
-0.3000541467379238,-0.15032504232714122
0.1483560014821146,-0.14840174417921026
0.15616850185812342,-0.1484044193046083
-0.203207982819491,-0.1360189239348696
-0.20657406930969763,-0.1344913011702276
-0.2188335691932462,-0.13111971941423362
-0.22664615926606216,-0.13036747669694668
-0.14070663585426635,-0.14727134672674091
-0.1250816095520617,-0.14749021164925757
-0.1395282453745645,-0.14714054931602827
-0.2944736685095756,-0.15235680206033902
-0.29625581816962027,-0.15170828341611603
-0.29236684850276645,-0.15312329998031815
-0.29036054943595524,-0.15385332679513827
-0.2884609004396177,-0.1545445388184718
-0.2865076986721018,-0.15525519404556548
-0.28456639053778,-0.15596156138375838
-0.2826013046674812,-0.15667655604807867
-0.28064808980780953,-0.15738718847595695
-0.287191131563171,-0.14627137733134593
-0.3048629410917406,-0.14849069499822093
-0.30472429928976136,-0.14848858536775997
-0.30480825858649246,-0.14848926583938798
-0.2981551688577424,-0.151016896687507
0.1639810018691918,-0.148404044862676
0.1717935016597165,-0.14840182726901519
-0.21102082046451504,-0.13319779915696217
-0.1218417185914435,-0.14713843286255732
-0.12508170914079356,-0.1466579803773398
-0.13289421776236213,-0.14658639994217357
-0.27877640335393494,-0.15806816166314333
-0.2891442119730708,-0.14655759720966993
-0.2882086936692313,-0.14649014849515996
-0.3045720744860535,-0.14848533454304796
0.1796060007144227,-0.1483934607332948
0.18365029732099658,-0.1483861178251666
-0.26111602914661663,-0.16449375444593703
-0.2591628326715356,-0.16520443740394453
-0.2572940723718715,-0.16588436054929295
-0.2767416622066287,-0.1588084591535824
-0.2747884435354322,-0.15951908110545981
-0.27299554023081507,-0.16017144971675437
-0.27088204654284914,-0.16094043591085566
-0.2688778846990762,-0.1616696009353658
-0.2650224176089676,-0.16307237619521955
-0.26308378884019334,-0.1637777593086827
-0.2910970559865238,-0.14688439533356004
-0.30443710253126044,-0.1484812242495942
0.1710845344353589,-0.1483224419151581
0.17179349245970343,-0.14832494569019608
0.1933909702425024,-0.1483849522101599
0.19523100002072127,-0.14838672961960092
0.18741849796079546,-0.14836998249883415
0.20897919959131553,-0.1484004680725305
0.21085600182610345,-0.14840088269179735
0.2030435014361502,-0.14839809096287104
0.21204705625608314,-0.14840010095828782
0.1338893224645247,-0.14818023879574263
0.14054347826679836,-0.14820820816068275
0.12081086030435169,-0.14804981515939275
0.12491846609269398,-0.14810740704827186
-0.25525641014575207,-0.16662572203133147
-0.2533031971397346,-0.16733635955404613
-0.2515138194526282,-0.1679875665881366
-0.26697562232495814,-0.16236171588739565
-0.291915308594639,-0.14715878467295185
-0.2930484168609513,-0.14750813448743083
-0.30427367826813345,-0.14847397261235606
0.14835598110649223,-0.1482314715851654
0.1570585688833745,-0.1482654586987723
0.1639809878422902,-0.14828682651873717
0.15616848406832173,-0.1482557556023001
0.17557953599724763,-0.14832190402200537
0.21866850125878373,-0.14839567477160032
0.1327309739939708,-0.1481729684817426
0.11710594895032894,-0.14796462071063454
0.11330485844697433,-0.1478527303625783
-0.23581185576402325,-0.173700830501749
-0.23767765156961013,-0.17302189531229978
-0.2473952155848378,-0.16948598408097187
-0.2493968288528839,-0.16875779325697488
-0.2396308390389854,-0.17231118760216285
-0.29335127346953654,-0.14760441825844467
-0.29499462378692703,-0.14787404234103974
-0.2952396841663913,-0.14790161873536298
-0.29692146812896386,-0.14798134278817643
-0.3041228011727921,-0.14846268445416588
0.14638249375976145,-0.14804675513675628
0.14835596282696634,-0.14807871541177425
0.16048852018160673,-0.14817705580990415
0.16398097942749013,-0.1482165067182435
0.1561684704903865,-0.1481422891182577
0.17204702095481542,-0.14826366510968808
0.1717934848404401,-0.14826127393986582
0.22648100073478358,-0.14839082883672433
0.23429350081449687,-0.14839102792899073
-0.007894592913476911,-0.14344390972921783
-0.015706998772707044,-0.14423108110396438
-0.00281323279777085,-0.1422794182404239
0.03898049700466444,-0.14419252497214174
0.031168004009166434,-0.1442515263661383
0.046792869277504534,-0.14312468280395094
0.02335548748014012,-0.14411386555380645
0.015543013516216446,-0.14433190775570964
0.049252398698329446,-0.14227318782064002
0.1364376104005912,-0.14784996218803995
0.14054344836444005,-0.14795832368333095
0.11084945771469244,-0.147556049686686
-0.23181807123182271,-0.1751539691630551
-0.23377128063759825,-0.1744433217451007
-0.23003216470693014,-0.17580374924383593
-0.22799510232680997,-0.17654496171369663
-0.22591263152409916,-0.1773025893180093
-0.22786389635205295,-0.17659269900316946
-0.24549040866046865,-0.1701790842976451
-0.24353722766513464,-0.17088980980172352
-0.24160129636020836,-0.17159423674717533
-0.29880670715328617,-0.14801870502741674
-0.300304869062996,-0.14810154025128797
-0.3006850222162226,-0.14811744588819767
-0.3020330184093404,-0.14826260380533723
-0.30229507758581775,-0.14828316203918418
-0.3032725836164484,-0.14838865378780847
-0.30393258427950715,-0.14844415155152432
-0.3039351359708459,-0.14844440852405583
0.24210600117526704,-0.14839357603412684
0.24991850131067728,-0.14839424048819339
-0.33603050397021483,-0.052283301906502905
-0.32821790754815494,-0.05308860299936706
-0.3103780141213257,-0.056378722282518945
-0.3047799368094803,-0.05702101523353596
-0.29696718490458607,-0.059125636937561746
-0.3204052429695499,-0.05446346716818426
-0.3125925447770536,-0.056119231484460005
-0.2813419628229597,-0.06098056822120687
-0.28915447855478726,-0.06084956946179225
-0.25716700130821,-0.06418485485686752
-0.25009120394215684,-0.0673204246857633
-0.2344656016527633,-0.07235263171764808
-0.23547410914035125,-0.07199475903864383
-0.1094598516293088,-0.12039627218177999
-0.11491114081825493,-0.1188553322387842
-0.1250855667237535,-0.11442138962432194
-0.13289839831320463,-0.11165086958771249
-0.13432414354680597,-0.11104515523465247
-0.078430209393228,-0.13447596686970462
-0.07820815048998903,-0.13461028302351113
-0.0938340545502765,-0.12705627346854828
-0.09489242685064489,-0.1266654367606487
-0.10164690358319325,-0.12413998371484804
-0.04921934683208887,-0.14228497141557708
-0.046957140667776176,-0.14304717727409866
-0.06258297997304778,-0.1360343046161449
-0.07039550526340904,-0.1358234282373137
-0.02351953490626653,-0.14392959149691695
-0.031332012165516385,-0.1441200956311795
-0.039144518371980755,-0.14406869724440055
0.007730388534423784,-0.14328794176784812
0.0028392029825637455,-0.1422787418432174
-8.237984821132777E-5,-0.14104562066165272
0.05460486444758546,-0.13890551315171193
0.0624170068929651,-0.13591707621427795
0.13086135195903215,-0.14755365496874592
0.13273091232553846,-0.14765762505878047
