"Plane Section: Position[X] (m)","Plane Section: Position[Y] (m)"
3.5,1.502696955935131E-4
3.2699999999999996,1.5226872485893123E-4
3.04,1.5762788369673008E-4
2.8100000000000005,1.6608659759894436E-4
2.58,1.7865746351004158E-4
2.35,2.0137230896485078E-4
2.1200000000000006,2.3136386491066007E-4
1.8900000000000001,2.698660327848211E-4
1.6600000000000004,3.296043157069667E-4
1.4300000000000002,4.1803650364988676E-4
1.2000000000000004,5.094101917110408E-4
1.1760000000000002,5.572460017965954E-4
1.1520000000000001,5.745096090080222E-4
1.1280000000000001,5.969106345734039E-4
1.1040000000000003,6.208487262621947E-4
1.0800000000000005,6.451355265172663E-4
1.056,6.70251644047117E-4
1.032,6.951757897510874E-4
1.008,7.244674672933052E-4
0.9840000000000001,7.55180292947834E-4
0.96,7.848081426379464E-4
0.9359999999999999,8.194035552682965E-4
0.9120000000000001,8.579497760790333E-4
0.8879999999999999,8.976234957846438E-4
0.8640000000000001,9.405133444194783E-4
0.8400000000000001,9.886619409653513E-4
0.8160000000000001,0.0010402008160985384
0.7920000000000005,0.001098322364178172
0.7680000000000007,0.0011607728313070577
0.7440000000000007,0.001229470508782431
0.7200000000000006,0.001307124546201081
0.6960000000000006,0.001397088590776691
0.6720000000000006,0.0015021440212112732
0.6480000000000005,0.0016213720861491066
0.6240000000000003,0.00176364068387971
0.6000000000000003,0.0019519316227483718
0.5760000000000003,0.0022361215621324896
0.5520000000000003,0.00269995150206987
0.528,0.0034787572742175717
0.5099728149511681,0.004000000000000623
0.5040000000000001,0.004195364067393294
0.46384468723086997,0.004000000000000507
0.45600000000000007,0.0035424468141102413
0.4800000000000002,0.0049814710054623635
-0.463284871724029,0.003999999999998866
-0.45599999999999996,0.0035883317318460804
-0.4800000000000002,0.004981451775823049
-0.5121694601214617,0.003999999999999011
-0.5280000000000001,0.003533552994243013
-0.5040000000000002,0.004268741041873636
-0.5519999999999998,0.002724634621634401
-0.576,0.002258847042822744
-0.6,0.001967628469955223
-0.624,0.001770218404305073
-0.6479999999999999,0.0016231737991612345
-0.6719999999999999,0.0015058506233392418
-0.6960000000000002,0.0013985817011826457
-0.72,0.0013087157195610874
-0.7440000000000001,0.0012310682737002561
-0.768,0.001159732183349112
-0.7919999999999999,0.0010975664901503545
-0.8160000000000001,0.0010399482111892793
-0.84,9.877712038450317E-4
-0.864,9.402475602245224E-4
-0.8879999999999999,8.969562583933906E-4
-0.9119999999999999,8.564567712666431E-4
-0.936,8.192942053343446E-4
-0.96,7.842570306856565E-4
-0.984,7.531607175446433E-4
-1.008,7.236769625237795E-4
-1.032,6.9581859634522E-4
-1.056,6.693199075488336E-4
-1.0799999999999998,6.424788033174586E-4
-1.104,6.185327067862079E-4
-1.1280000000000001,5.947554878991097E-4
-1.1520000000000001,5.793672718587449E-4
-1.176,5.601449256118923E-4
-1.2000000000000002,5.067234246145877E-4
-1.4300000000000002,4.1703037348889106E-4
-1.6599999999999997,3.2910306606025587E-4
-1.8900000000000001,2.7059483253126146E-4
-2.12,2.301605415172001E-4
-2.3499999999999996,2.012420459553036E-4
-2.58,1.792356298630773E-4
-2.8099999999999996,1.6605388421621608E-4
-3.04,1.581822151881456E-4
-3.2700000000000005,1.5249431485188304E-4
-3.5,1.5051717824276297E-4
-0.28057167628172547,0.028641947948333902
-0.28151233731862246,0.028983930141698172
-0.2610378283099769,0.021540291298742888
-0.2590845958296427,0.020829707195782088
-0.25721580591696513,0.020149865331392895
-0.2786998186965054,0.02796144480846991
-0.2630056248209506,0.022256185344570172
-0.26494428650848145,0.022961478081380476
-0.2917075462932335,0.03268278654842724
-0.2902872147505794,0.032167353479083755
-0.2864330182413778,0.030769181504001014
-0.28838692133188454,0.03147791030222112
-0.2844909999156783,0.030064765109851524
-0.2825252753688528,0.029351524925526833
-0.23573347188775345,0.012333717339088442
-0.23759920563264705,0.013012823050246872
-0.23955232279177277,0.013723723958463583
-0.2551781159716831,0.01940857991503004
-0.25322484512243926,0.018698101217424924
-0.2514354342556766,0.018046985337258736
-0.2766649007965459,0.027221632801438377
-0.27291842293843827,0.025859619766970446
-0.2747114702047404,0.026511592941437838
-0.2708044762296709,0.025091878020180442
-0.26880006456855393,0.024363399197365094
-0.2664488132129537,0.023508833725687576
-0.2944033655196602,0.03365573823711323
-0.2961868045080707,0.034301531808722856
-0.29229441156406144,0.03289493073117971
-0.2980889033651761,0.03498899695068144
-0.2987441482477403,0.035225703558053434
-0.2999945123151668,0.03567418038845331
-0.30153616501476,0.03621798015981908
-0.2317398749819224,0.01088006311156977
-0.23369298278428802,0.01159098972425565
-0.22995409633296016,0.010229931669233028
-0.2278336679298888,0.00945818639061196
-0.22583475512823636,0.008730564047341597
-0.24731667174096378,0.016549003481520087
-0.24931829157608165,0.017277176370203876
-0.2415227001414086,0.014440894570768486
-0.2416852410123178,0.014500054255339553
-0.2668975615750714,0.023671945193276287
-0.3016787912789637,0.03626719440824193
-0.2142523236012699,0.004514356682206789
-0.21611508749743796,0.005192444353537829
-0.22392746830768556,0.008036289258757316
-0.2219743708944884,0.007325334105415713
-0.22004122690663758,0.0066216376656295
-0.2180681807649677,0.005903410895677932
-0.2454118347295281,0.01585598587354239
-0.24345863154708294,0.015145321284739046
-0.3026139091392094,0.03659442797948689
-0.20847362262229202,0.002410625079442507
-0.21025581958295386,0.003059512068658646
-0.20504178925939862,0.0011613646408878528
-0.20634966076236738,0.0016375028484431951
-0.21220890642417192,0.0037704962648700555
-0.3034134478897111,0.036868557598930714
-0.20435338192971605,9.106436993516322E-4
-0.3034384270742263,0.03687707856105759
-0.18967829015870416,-0.0044366280027653485
-0.19072654878985773,-0.004054718801002617
-0.20244367549124787,2.150168608958849E-4
-0.2004907727213709,-4.964730078582207E-4
-0.19856059238231472,-0.0011999015243010292
-0.19277269612112724,-0.0033091355600505003
-0.1946322706001874,-0.002631509045771703
-0.30365733526879174,0.0369132375928493
-0.18486817852585785,-0.0061901170710862135
-0.18287460976859723,-0.006916409908849748
-0.18877370607238605,-0.004766373643037191
-0.18699557260201544,-0.0054152126532387036
-0.1965851269411929,-0.0019198916297132218
-0.30403349087600967,0.03699338426419234
-0.17708198243458684,-0.009026980166526406
-0.17900955812670918,-0.008324828181081623
-0.1731507711140901,-0.010459081578014003
-0.17510367850973577,-0.009747604416972096
-0.17129413232165686,-0.011135501969209895
-0.18096241398373353,-0.007613209435446513
-0.30457020793666145,0.03711235277436721
-0.16924496179564585,-0.01188205093486629
-0.16719045050625903,-0.012630499105852441
-0.3044271519954685,0.03617765642350182
-0.3026275855797357,0.0348647861473219
-0.3007084085062096,0.034223746426590824
-0.16617423936159842,-0.013000626873921981
-0.16139528330212513,-0.014741928289280965
-0.16338621351780078,-0.014016410742243161
-0.29500192099142253,0.032021401976318614
-0.2967964420984403,0.03267517929355254
-0.29092654325423367,0.03041114276978933
-0.29293538613749714,0.03113535477300776
-0.2987243379737837,0.033431006520486986
-0.15166909339728654,-0.01828616448282687
-0.14981550024168114,-0.0189616311720603
-0.159480458757672,-0.01543952997925021
-0.1575276163374138,-0.016151185637774318
-0.1556028869305152,-0.016852701923851115
-0.16542689242264827,-0.013272937613805148
-0.2897321671016415,0.02986746046261926
-0.28710886913950184,0.02864866485962727
-0.2890619655887911,0.029406301447363527
-0.2857876057907353,0.028173409610322817
-0.28320270345033616,0.026411383428358592
-0.28516274127429064,0.027352395135076223
-0.2818179534572973,0.026150807296452205
-0.14571134501373745,-0.02045686222845732
-0.14776325153075984,-0.019709044425054174
-0.1419048376705196,-0.02184432292948319
-0.14394764713592292,-0.021099634552735884
-0.1536218926626182,-0.017574390271028206
-0.13991667061959484,-0.02256939480020074
-0.28140585868563667,0.024197666764968567
-0.13799919706057753,-0.023267755754781877
-0.13604645155729844,-0.02397967765928383
-0.13589722882735572,-0.02403418098529884
-0.1301897204882907,-0.026119579052391383
-0.12833968441904145,-0.02679544566021526
-0.2812496679700845,0.024035919059985776
-0.12628479225782252,-0.02754496889466429
-0.1341252710980977,-0.02468246494761833
-0.13214223672727735,-0.02540702732329641
-0.27984574161346665,0.02224448296941616
-0.12423588664744703,-0.028293236785749243
-0.2792966284632918,0.021767300013312126
-0.27783309162816017,0.020291282119824776
-0.12247228010843114,-0.02893698656950531
-0.12054889993154766,-0.02963966786157943
-0.12042777477643005,-0.029684083468474464
-0.11843153858653394,-0.03041694396173436
-0.10686694770819294,-0.03463766566777067
-0.10871389686254704,-0.0339627440538393
-0.2773435749539755,0.019870241143491733
-0.2757390845750895,0.01833807820423144
-0.11457207226428937,-0.031826810466905345
-0.11652435656443089,-0.031113621565811503
-0.11265315582279692,-0.03252731457556838
-0.11066673603688594,-0.033251079478271106
-0.09895118562743263,-0.03752514545874587
-0.09696844790407304,-0.03824902010121259
-0.10480849969082283,-0.03538684564169646
-0.10276125553811385,-0.03613187601010075
-0.1009975615152825,-0.03677612084557161
-0.2738442221401157,0.016384881793550705
-0.27539052045407997,0.01799946749595895
-0.27238397115974117,0.014431701761525603
-0.27343747615614244,0.015857982543683098
-0.09539170144988311,-0.03882495841162483
-0.2715920018912795,0.012478546914191632
-0.08723181129594637,-0.041788706531963864
-0.08918586458748408,-0.041080377324770434
-0.08594601379381707,-0.04226331069046373
-0.08332717591179124,-0.043214900868498676
-0.08400622120471005,-0.042969420241413536
-0.08127920186959268,-0.04395011622330593
-0.09504650253056711,-0.03895120872106471
-0.09309552170099339,-0.03966797845810433
-0.07548357595101678,-0.0460592514251833
-0.07746421363218908,-0.04533768415905899
-0.06390572581672019,-0.05027867442202131
-0.06574372620439033,-0.04959818738395693
-0.2716181857781186,0.010525422899564305
-0.08996641784469489,-0.04079983170052437
-0.09117819941760591,-0.04036433421568769
-0.08539169359922227,-0.042472914754125506
-0.07951378004403115,-0.04459035891041739
-0.07355667244957304,-0.04675589581626005
-0.07160285155159779,-0.047464863444639835
-0.06968873200966834,-0.04816146420693873
-0.06769615638519608,-0.04888539923967891
-0.062453329228067206,-0.05081495123310583
-0.27260532101666324,0.008572335099100624
-0.0618502680888707,-0.05105508741205403
-0.27343777833853167,0.007839501869921685
-0.05981368146066863,-0.05181376762038487
0.2610728106480512,0.02142579892491009
0.25911909428084956,0.020716544515305593
0.257249957793189,0.02003765504032788
0.23958803448600213,0.013607228188600023
0.23763559678569995,0.012894460258713634
0.2374850639133327,0.012839407666877531
-0.27475394600616626,0.006619291070238873
-0.0580493541656065,-0.05245777072608797
-0.05599721322422209,-0.05320508790904664
-0.05474977045400186,-0.05366076427505114
-0.044288184150367574,-0.05749706901048274
-0.04245308414965654,-0.05817592664632435
-0.0022836302388088434,-0.07265892491208811
-0.0015941984130543772,-0.07290879153742083
-3.3429789775660623E-6,-0.07348660096235382
0.26306193389048776,0.0221475354661389
0.2630412143361756,0.022140024502283705
0.25521202361224565,0.01929704081186729
0.2532586271766226,0.018586907294426445
0.2514692825516868,0.01793560943154897
0.24735074785267366,0.016437001816954774
0.2493521908259862,0.017165660612449868
0.2454461682340257,0.015743277004516353
0.24349332004360813,0.015031637019172137
0.24155787611114576,0.01432587086686834
0.2357714488205368,0.012210997135710161
-0.27882924320731334,0.004666319649447161
-0.2773441225661064,0.005339224521844173
-0.27539096159428594,0.00629370844330542
-0.28515670994755593,0.003020684342773382
-0.2832035670741778,0.0034949218417343565
-0.2812504232891415,0.003993350394683891
-0.0540197980015019,-0.05392741729865203
-0.05209588544565842,-0.054640368751459514
-0.050149362700930865,-0.055369385539427766
-0.04824243548263327,-0.056077164899215715
-0.04624488416653452,-0.056796010766592256
-0.040390786585941654,-0.05894314676107036
-0.03835273426350702,-0.059689973932843095
0.007150686658697147,-0.07089225938712156
0.008563917084246874,-0.07038344780322538
0.0033442547637176205,-0.07227023260550886
0.00369331269330316,-0.0721436639875338
0.00527115379130133,-0.07157232273584076
0.001587974356285655,-0.07290867675059304
-0.004963410470361831,-0.07169578161357053
-0.003350295810155954,-0.07227282077611719
-0.006407649946548445,-0.07118855676001533
-0.005279965272496913,-0.07158447375862936
0.08539741907329394,-0.04250703237024725
0.08723766480966623,-0.04182317298063355
0.23178043520377614,0.010750244526241138
0.23373219534063913,0.011464874264617696
0.22999630897620374,0.010095572527834832
0.22787710309157583,0.009320468019335003
0.22587990943310765,0.008588121799195377
0.21544965217639098,0.004757688566375009
0.21617011328658017,0.005022877152520488
0.26498136043933035,0.022841238295771293
0.2747531590170649,0.026378671382425722
0.27670754399871356,0.02708608857356742
0.27295966091045193,0.025727937159842583
0.27874344291021663,0.027823204784097062
0.280616267894206,0.028501049540957023
0.29623426776160783,0.03415791776630475
0.29444977793747645,0.033510586219852145
-0.27929727797554516,0.004532339744153941
-0.2864098278211615,0.0027134803280123177
-0.037871062792147275,-0.05986725907684487
-0.03286771962806873,-0.061782181484218004
-0.03454810575784943,-0.06112164634646628
0.009094540740149907,-0.07019434288437079
0.01043404814055948,-0.06972135203459856
0.011032671636086457,-0.06951518208412376
0.011842519025517986,-0.06923651535379793
-0.007167407179345295,-0.0709281656603382
-0.007828630633995536,-0.07069904688859073
0.06770586714975285,-0.04893046180210571
0.065751650189903,-0.04963834068346934
0.06391141863663621,-0.05031269930945878
0.059806676689990956,-0.05181291154137655
0.06184827027936231,-0.05106798585010934
0.05804182752516111,-0.0524554810347477
0.05599046621877546,-0.053204940581001905
0.05401320298953045,-0.05392768815855585
0.05208621602832905,-0.05463219439294768
0.05201169177132057,-0.054659463492833855
0.09141919727190663,-0.04031798629969993
0.09118533338710505,-0.0404023215844417
0.0891933589600171,-0.04111935312261815
0.08468808928002601,-0.04276762198518356
0.08196934001279524,-0.043757049763333465
0.08129150277438141,-0.04400229774075919
0.07549524258364294,-0.046109690027719856
0.07747634454641569,-0.04538939837475035
0.1498629455769107,-0.01911037356851267
0.15171577090978886,-0.01843279688779496
0.2239743626300942,0.007889065774873557
0.22202305188481605,0.007173201198513941
0.22009185409459486,0.0064641569792879905
0.21812089558694642,0.005740193789553035
0.2143099138176818,0.004337742929086782
0.20853926628740335,0.0022118819693671553
0.21031867891437683,0.002868419794969759
0.20442457567597994,6.966500093125555E-4
0.20641786304045318,0.0014317291697618488
0.2005677049950475,-7.262352779453883E-4
0.20251772598719792,-6.826718565177956E-6
0.19864066962260482,-0.0014383057185753372
0.2122690744091857,0.0035867992961301823
0.2708444771022022,0.024963595060680303
0.26883911639920754,0.024237724235734552
0.26693574472147075,0.02354865740903322
0.2923415074140501,0.03274701218230873
0.2903342213586141,0.03201973360921252
0.28647944830823874,0.030623228291187722
0.28843362921063237,0.03133117940430644
0.2845369257867435,0.029920199425431795
0.2825706486535038,0.029208478334272748
0.29650221795222187,0.03425495079478122
-0.28906298727998775,0.0022954854183010087
-0.2871098508144788,0.0025996886089868004
-0.036590834684905024,-0.06034140927872706
-0.03259129489986476,-0.061892474376411204
0.01301954785310979,-0.06883778436411402
0.013694776716691885,-0.06860404477022396
-0.009125527177348618,-0.07026470513292822
-0.009581162742834461,-0.07010272074267943
0.042439745499440996,-0.05815767532820233
0.044276871779274946,-0.057484383236312664
0.040376165625902766,-0.058921375351615256
0.038341536285576,-0.05967760923509968
0.016858242385441452,-0.06749241130432383
0.018897394895992334,-0.06675644764850065
0.07356901521593283,-0.04680819132719399
0.07161477854581914,-0.04751601604870531
0.06969990774771932,-0.04821055249272273
0.05013494091468112,-0.05534815687788158
0.048225887690700596,-0.05605009724060904
0.046231670959309995,-0.05677810417929375
0.09310664504279129,-0.03971692813123395
0.08333888313853743,-0.043265453187316595
0.07952639153298525,-0.04464339337075507
0.1575762120565612,-0.01630308834104288
0.1581797330501149,-0.016084413174634195
0.15565068051441266,-0.017002400721579023
0.14197587389366328,-0.02205788906999249
0.139990950968143,-0.022791875444782724
0.15366910635836906,-0.0177224957901913
0.1496942036357362,-0.019172531161856687
0.1457786652975774,-0.020660217297443988
0.1478250346401217,-0.01989718424471555
0.14401468844492776,-0.021302223228521166
0.18887425217925916,-0.005061023077146012
0.19082266336545672,-0.004337191093746824
0.18709978575265712,-0.005719938730432461
0.19688670424614294,-0.002091518038078187
0.19286501376732712,-0.003581174476716801
0.19472102777779893,-0.002893764343572928
0.1849778615766356,-0.006509873460715454
0.18299084091265144,-0.007254159289563935
0.29814258661760834,0.03484815689334572
-0.2929692562933392,0.0017910352555530248
-0.29101612249079906,0.002024575933182043
-0.020032563747093186,-0.06636070307983077
-0.01890300671445857,-0.06675346556633947
-0.022124800733417882,-0.06569274268503346
-0.02098854708877509,-0.0660404386530504
-0.01686403670850012,-0.06748993059719607
-0.030688653946412833,-0.0626719669694224
0.015088330525542745,-0.06812254049422677
-0.015099321386046336,-0.06813437195411419
-0.013041630235192414,-0.06888031234314111
-0.011065180562024442,-0.06958744521216391
0.03657784743251975,-0.06032413011690731
0.034976092407757155,-0.06092161309224743
0.02312430727843532,-0.06532844261582804
0.02283398316560907,-0.06541805255782089
0.02087597860992717,-0.06605303305626616
0.020973995056202593,-0.066018863985076
0.10486611266084403,-0.035563535773742556
0.10281346643521147,-0.036293722306912565
0.0988904801076819,-0.03766140613755353
0.09699291255191941,-0.038334627076696756
0.09506466910099903,-0.039019510392887244
0.13827239596369367,-0.023422880039968043
0.10631078670196689,-0.03505459040733709
0.15771391001228327,-0.016347577333386272
0.1966701769213076,-0.0021719601189279128
0.18115714772070302,-0.007956394590720537
0.17722190201977678,-0.009429821095393785
0.17914328165514176,-0.008710643469769611
0.3000561606323143,0.035539269611241237
-0.2968755180819128,0.001478296250835468
-0.2949223883253045,0.0016044772197708545
-0.3046880145096044,0.001573235477584477
-0.3027348928410702,0.001484797452532013
-0.30078176999129896,0.0014277038210232281
-0.29882864526835073,0.0014203154036250378
-0.0228778395810222,-0.06552011514175475
-0.030018521183068088,-0.06295978784117626
-0.023242370736849857,-0.06542639410393529
0.034530947970908034,-0.06109291500170395
0.032579429741049805,-0.06187829825035257
0.024756006297637106,-0.06487507985657216
0.10104203102734427,-0.03691669584729159
0.09898265727312115,-0.03763000580033956
0.12434131033708615,-0.028601296505759682
0.12639187426541423,-0.027857584816549468
0.1226604425989257,-0.029244957561694745
0.13807577223635578,-0.02349654221929218
0.13613944705399258,-0.02425358411817331
0.13422475928166827,-0.024974212740416845
0.1302939525390855,-0.026424363012738285
0.1322410880203039,-0.02569702564781082
0.12844908052347478,-0.02711441992416603
0.10694038232741634,-0.034857830526848134
0.10877830398189957,-0.03415810259663726
0.1225878825246114,-0.0292730157724122
0.1205463453470602,-0.030028269177305424
0.11854964851503177,-0.03075986522099642
0.15760798533285353,-0.0163903949342609
0.1557077538879024,-0.01715922690962801
0.15428055080936892,-0.01773752883753245
0.1752497641861842,-0.010167388648633476
