"Plane Section: Position[X] (m)","Plane Section: Position[Y] (m)"
3.5,1.3259385472448408E-4
3.2700000000000005,1.3444968170694808E-4
3.04,1.391285203842245E-4
2.8100000000000005,1.4643869493146278E-4
2.58,1.5736994282569694E-4
2.35,1.7731588383564317E-4
2.1200000000000006,2.0359446048339434E-4
1.8900000000000003,2.3707953131397368E-4
1.6600000000000001,2.889703362348032E-4
1.4300000000000002,3.653697077850418E-4
1.2000000000000004,4.436544527422042E-4
1.1760000000000002,4.8410527242936127E-4
1.1520000000000001,4.986866800808317E-4
1.1280000000000001,5.182852580792372E-4
1.104,5.389885090068133E-4
1.0800000000000005,5.598370249444161E-4
1.0560000000000003,5.812871071033846E-4
1.032,6.021434575128987E-4
1.008,6.269301212170792E-4
0.9840000000000001,6.533382198828393E-4
0.9600000000000001,6.781211781999165E-4
0.9359999999999999,7.069713026587048E-4
0.9120000000000001,7.400766829068578E-4
0.888,7.736178086368877E-4
0.8640000000000002,8.09344554007181E-4
0.8400000000000003,8.500239364467676E-4
0.8160000000000002,8.933455143551494E-4
0.7920000000000005,9.423562008461509E-4
0.7680000000000007,9.949784424006106E-4
0.7440000000000007,0.001052815821888201
0.7200000000000006,0.0011177593874762929
0.6960000000000006,0.0011935821037607705
0.6720000000000006,0.0012822439967985141
0.6480000000000005,0.0013840576005857785
0.6240000000000003,0.0015057846221908262
0.6000000000000003,0.0016673891676054864
0.5760000000000003,0.0019191074454187646
0.5520000000000003,0.0023447262951108386
0.5280000000000001,0.0030616522807904714
0.5040000000000001,0.003715607290606222
0.49534585848498236,0.004000000000000641
0.4708865418682836,0.004000000000000535
0.4560000000000002,0.0031749743941024595
0.4800000000000002,0.004526084942103544
-0.46950953542823914,0.003999999999998869
-0.456,0.0033142175411161367
-0.49695300802725273,0.003999999999998969
-0.5040000000000002,0.0037824169987868287
-0.4800000000000002,0.004539365883163119
-0.528,0.00311157986244693
-0.5519999999999998,0.0023718494767933653
-0.5759999999999998,0.0019404131617381756
-0.6,0.0016799755805515023
-0.624,0.0015121916054813781
-0.6479999999999999,0.0013863213016291876
-0.6719999999999999,0.0012854658932741638
-0.6960000000000001,0.0011948479362236732
-0.72,0.0011190996300551623
-0.744,0.0010538557119738848
-0.768,9.938132092323993E-4
-0.7919999999999998,9.416286691991662E-4
-0.8160000000000001,8.930575375635954E-4
-0.8400000000000001,8.490995252632913E-4
-0.864,8.091535295455151E-4
-0.888,7.727282129359402E-4
-0.9119999999999999,7.384017675606218E-4
-0.936,7.070924741380677E-4
-0.96,6.776347485469598E-4
-0.984,6.512716896496317E-4
-1.008,6.263218043337977E-4
-1.032,6.028465547053254E-4
-1.056,5.803579079315734E-4
-1.08,5.573407945354387E-4
-1.104,5.365951199968648E-4
-1.1280000000000001,5.159997815298213E-4
-1.1520000000000001,5.039369664188993E-4
-1.1760000000000002,4.8737420685362456E-4
-1.2000000000000002,4.408524085923193E-4
-1.43,3.6432721811642825E-4
-1.6599999999999997,2.884694797067255E-4
-1.89,2.377767057025605E-4
-2.12,2.0259074957166407E-4
-2.3499999999999996,1.7733872089496262E-4
-2.58,1.5793498663058592E-4
-2.81,1.4634545746424377E-4
-3.0400000000000005,1.3964581692342017E-4
-3.2699999999999996,1.3470525456844634E-4
-3.5,1.328490847118622E-4
-0.2610412907904249,0.024691664746593203
-0.25908785979963234,0.023981626013966
-0.2572188473980617,0.023302395394810556
-0.2630092682475606,0.025407061675876016
-0.264511471907158,0.02595313982236066
-0.2805823919938232,0.031773394683967573
-0.2810964286944072,0.03195924097573321
-0.2357353649614173,0.015489402474245415
-0.23760121422868524,0.016168190815487066
-0.2473189288772329,0.019703688412663144
-0.24932053403711313,0.020431901604742786
-0.23955443926768194,0.016878795349260737
-0.2551808938180325,0.0225618342627786
-0.25322739605837663,0.021851978960939874
-0.2495194787591109,0.020504270606546526
-0.2514378928591291,0.02120111674861536
-0.2787091057123207,0.03109681655694764
-0.272924387086464,0.029004120345965084
-0.2741737739915174,0.02945788945329939
-0.2708099874181452,0.028237623045960565
-0.2688050172333073,0.027510678662516504
-0.26494819665638714,0.026111621650485264
-0.28645067234822413,0.03388156656152188
-0.2867193809615818,0.033978251970082196
-0.28450632650301655,0.03318354449928882
-0.2825381686084679,0.03247698940062054
-0.23174149531916216,0.01403649752323361
-0.23369474711691895,0.01474702854399207
-0.22995569129005075,0.013386435803578976
-0.22783507351817073,0.012615210771687098
-0.22583606586442034,0.011887849010728596
-0.24541409051383228,0.019010674529753028
-0.243460876347395,0.018300040126337343
-0.24152491543827032,0.017595694473842665
-0.2766726467225073,0.030361238337451763
-0.2747178021176431,0.02965508315659663
-0.2669020460424296,0.026820510946613783
-0.29218364532381613,0.03592562785271539
-0.29031266030125213,0.03525833808322651
-0.28840814677755866,0.03458048431689575
-0.21425332059313773,0.007672503575935871
-0.21611610859918068,0.008350525012299609
-0.22392869815246502,0.011193796450785373
-0.22197553335774267,0.010483026410911034
-0.22004233286054203,0.009779485215868591
-0.2180692390072475,0.009061389520932824
-0.2944389140246815,0.0367195352145441
-0.2962273485754396,0.0373541407187296
-0.2923237721215403,0.035975211351942614
-0.2981374107434172,0.03803060582564662
-0.2981583414020374,0.03803799203317486
-0.3000623618021785,0.03869714348538102
-0.301260756162428,0.03908406436526677
-0.2084747261759502,0.005568479213724508
-0.2102567971967056,0.006217712196149997
-0.20435442478543214,0.004068664580372285
-0.20635068518030134,0.004795574388798436
-0.21220988782202338,0.006928685997949541
-0.30179725579411437,0.03925200702855929
-0.190286384361154,-0.0010565937318026387
-0.1907273201804822,-8.959522935672757E-4
-0.2004917173503714,0.002661817692851581
-0.20244467341456376,0.0033731611677536447
-0.19856148248526842,0.0019585389477191125
-0.19277349307023944,-1.5043924456346745E-4
-0.19463309260326206,5.271184625095916E-4
-0.302734196137051,0.03956859337769683
-0.18486895018567998,-0.0030313513922996045
-0.18287539199053107,-0.00375767326581175
-0.1887745172902579,-0.0016077165757114025
-0.18699635651306393,-0.002256480615766297
-0.19658596665960373,0.0012386872334981067
-0.30363875378588295,0.03989578393743431
-0.1770827364300968,-0.005868166040088683
-0.17901029152452685,-0.005165957452280844
-0.1731515048469448,-0.007300211819079097
-0.17510443476491677,-0.006588796513971392
-0.17129485504609382,-0.007976601985490965
-0.18096316437755092,-0.004454385375472151
-0.30387173449859084,0.039951160003017835
-0.16924568280854577,-0.008723146268621414
-0.1675372245337237,-0.009345515653663237
-0.3042169413890825,0.03948487615298953
-0.30244754803303,0.03829042104459292
-0.3005926265807022,0.03761945415020354
-0.16719119060294985,-0.009471646885681367
-0.16338710628955017,-0.010857977993680303
-0.16139616961140232,-0.011583477811336595
-0.2948809445251928,0.035512543647945774
-0.29667110693519333,0.03617024040899014
-0.29077968257603415,0.03397540154062858
-0.29278328242597873,0.034713738519180456
-0.2869555159612418,0.03249463547726989
-0.2888965291044884,0.03323878592921688
-0.28501759485947137,0.031778962323875184
-0.2830792639078463,0.030990465145571
-0.2811434337507117,0.030232072516370327
-0.29860225273463636,0.036890967833628406
-0.1516698340843977,-0.015127314061754178
-0.14981626642799686,-0.015802850826520998
-0.15948132086851458,-0.01228101304028338
-0.15752841823224684,-0.012992503295071341
-0.15560366487611108,-0.01369395381418972
-0.1654277373216985,-0.010114373326993694
-0.2792743402032282,0.02954397589932717
-0.1457120948125063,-0.017298036901725107
-0.14776405516880348,-0.01655036698044663
-0.14190547447421636,-0.01868518723410223
-0.14394836013554507,-0.017940708153229033
-0.15362269403429982,-0.014415706536838224
-0.1399173352644737,-0.01941033563329809
-0.27728087413039193,0.028690285373262465
-0.27356233742459984,0.02725151105099565
-0.2753516145328892,0.027913841771759533
-0.27223136802869197,0.026654599050753038
-0.13800004329764606,-0.020109195478952364
-0.13756823831288426,-0.020266566994077584
-0.13019020416807875,-0.022960023019974525
-0.12834027524322117,-0.02363618405494
-0.2714850920305436,0.026229176836193573
-0.2698414474513931,0.02560828932842433
-0.12628517426963473,-0.024385133676303572
-0.13604734786796344,-0.02082125498210151
-0.13412582145062638,-0.021523091942807084
-0.13214262018394424,-0.022247195897114474
-0.26949339214005386,0.025119529764673285
-0.267578904209808,0.02388729305941599
-0.2658835820021653,0.023448928221828355
-0.2654890746675485,0.021495792746360348
-0.26562582181785205,0.022282537980354136
-0.12423623865557581,-0.025133319214781874
-0.2640033222916377,0.019542628296647668
-0.2621334573793927,0.01758945364814995
-0.26367277781007975,0.019232135244437433
-0.12247284641026293,-0.025777657771600473
-0.12083874658809228,-0.026374603949852596
-0.12042843031833177,-0.026524999923583346
-0.11843252350236451,-0.027258765479664063
-0.10686860855638688,-0.031481344481701125
-0.1087154510497718,-0.030806129763246044
-0.26027023309009983,0.015636279175971733
-0.2617197072368324,0.01718225707414676
-0.11457289289370114,-0.02866818080170796
-0.11652524597167205,-0.02795518077269854
-0.11265417989467646,-0.029369243879118365
-0.11066809564898425,-0.030093930616064857
-0.10481032332190118,-0.032230971657639176
-0.10276333880009574,-0.03297671529162824
-0.0995336159229458,-0.03415742331387102
-0.10099943993775544,-0.03362039745046361
-0.25976663957018375,0.015022908872387861
-0.2587116427320792,0.013683112792295102
-0.09895359728697456,-0.03437088712570459
-0.09697284149749344,-0.035100206702340375
-0.2577420921919517,0.011729962048538435
-0.2578135981081036,0.011876628848520891
-0.08723335680483839,-0.038632068593783146
-0.08817793801976542,-0.038290893517129235
-0.08670297491083943,-0.03882778053643461
-0.08128012843594316,-0.04079177773045476
-0.08318263615260962,-0.04010918491286652
-0.09505079369413974,-0.0358021140009121
-0.09309817277402371,-0.036514378200499444
-0.07548389284825108,-0.04289923800300422
-0.07746493761115271,-0.04217878907389098
-0.06390523065563339,-0.04711643022554311
-0.06574405801796737,-0.046438214743906074
-0.25759686283144745,0.009776833191786575
-0.09118088487269106,-0.03721082836640834
-0.08918846563859507,-0.03792663931584353
-0.08539517973527819,-0.03932160864488065
-0.0833284172581082,-0.04005742746888286
-0.07951527355745605,-0.04143357789024195
-0.07355772758655821,-0.0435979103778627
-0.07160404862774532,-0.04430726788025795
-0.06968970664811462,-0.045003257545870874
-0.06769719740160997,-0.04572737489342686
-0.06184322371578714,-0.047874851753554784
-0.2578136649413315,0.009359516529299741
-0.25856127638118,0.00782373379777322
-0.0615071405358668,-0.047999071895963356
-0.2608636631010033,0.0058706699290218154
-0.2597668572513695,0.00682447237611486
-0.05981288576607022,-0.048650699176775294
-0.2617200188219274,0.005447156486551154
-0.26367316909017435,0.004495514913602299
-0.05804924477535913,-0.04929658778668605
-0.05599773579539521,-0.050045641135803495
-0.055808561764651154,-0.05011497430179299
-0.04429163708607304,-0.05434567359430417
-0.042456565948362876,-0.055024610856503495
-0.0016206334205769797,-0.06973920517565055
-0.0015943180630402115,-0.06974871055386747
-3.280637684269179E-6,-0.0703264974464217
0.2583511331727512,0.023535010744184418
0.2572699524956844,0.023143946723483022
0.23764713149166505,0.016023997659674584
0.23960037928984762,0.016734539612518102
0.23578144465345652,0.015344763058865844
-0.26491042135557963,0.003917652376032419
-0.05402098278431687,-0.05076978986418691
-0.05209697632094812,-0.051482483715981645
-0.05015049228001019,-0.052211607459082196
-0.048243960013195454,-0.05292047226685788
-0.046247924333240285,-0.05364348171302259
-0.04045174102404251,-0.05576728871758326
0.007151238492346717,-0.06773258850282031
0.008024560224463684,-0.06741859934014752
0.0052716282532988025,-0.06841248946205508
0.001588193324340271,-0.06974849330749958
0.001780032094271335,-0.06967890292084161
-0.00453020014349483,-0.0686924532651974
-0.0033507934850867966,-0.06911366673159343
-0.0059139973344187295,-0.06820724755782216
-0.005281694257968967,-0.06842870879010582
0.08539604752262203,-0.03934203248819776
0.08723618891615773,-0.03865788682765734
0.2317883830642667,0.013889637925628306
0.233741139186856,0.0146015308576181
0.23000362812867708,0.013236693595184666
0.22788336109607754,0.01246450492544212
0.2258853650234843,0.011734363670316442
0.2591404718855987,0.023819036433346492
0.26109588503037506,0.024523628654010064
0.25523118460889355,0.022405623239781514
0.25327697059676113,0.02169773615717553
0.2514870002641502,0.021048157556867866
0.24736653839692932,0.01955484522252724
0.24936898189966653,0.02028075485086892
0.24546104683274322,0.01886362618464185
0.243507348510214,0.018154322139492772
0.24157105627298656,0.017450886920461248
-0.2656263149264035,0.003710794506856317
-0.03306792488080205,-0.05854864054276794
-0.034549813163966644,-0.05796545794378424
-0.040393430913285816,-0.05578953073337925
-0.03835659245551241,-0.056539692847076224
0.009096149209930095,-0.06703756759515048
0.009938958444002405,-0.06674036946730837
0.011036140952928323,-0.06636350210962166
0.011318121463271179,-0.0662661814486644
0.0033446265720574334,-0.06911024160488259
-0.007144063559289877,-0.06778724841416181
0.06770654164719725,-0.04577108431804501
0.06575243380435075,-0.04647926312245066
0.06391143410734829,-0.04715151097474901
0.05980667484605144,-0.04865167543662302
0.06184844906047987,-0.04790724610836339
0.05804152235537423,-0.04929341147165399
0.05598993467197737,-0.050042248912106055
0.05401256423745751,-0.05076470182475601
0.052085580057729876,-0.05146921560359759
0.051248536692010085,-0.05177551671838099
0.09120952445322979,-0.0372321082146534
0.09118524092593291,-0.037240836209899555
0.08919226232853027,-0.03795510882712856
0.08333603351025543,-0.04009639170205108
0.08128980546022152,-0.040836402726883526
0.07549497827003229,-0.042947732538758894
0.07747540753657986,-0.042225592494098754
0.22397914912155387,0.01103714630216844
0.22202728885202835,0.010322791830844424
0.22009549999050887,0.009615371890943669
0.21431252530379225,0.007491800771286687
0.2161732239250022,0.008175563222586375
0.20854096409169917,0.005368451126108593
0.21032052371672608,0.006024584770734472
0.20442536425752622,0.003855717984566113
0.20641903123824806,0.004589753776449414
0.20056767653464316,0.0024350782756040936
0.2025181227804665,0.003153318065960832
0.19864023217772747,0.001724131932470622
0.21227129314122192,0.006741936561660586
0.26500567989326634,0.025935647150819884
0.26306539259423556,0.025234821172827715
0.27477871082781435,0.029469694662198585
0.2767330791568107,0.03017715772767724
0.2729855052060688,0.02881815671709063
0.27876888024673013,0.030914542839751723
0.2806415442837786,0.03159282994562937
0.29626158241051864,0.037246308911190074
0.2944758758528422,0.03660056595113452
-0.27286055966481926,0.001964738463830892
-0.27148572861003467,0.002253946608932133
-0.2695325921099287,0.0026870444613227157
-0.26757945427069296,0.0031705773754662206
-0.036593380111655825,-0.0571875220068493
-0.03259356943209498,-0.05873784580166381
0.012968673655148547,-0.06570709641124044
-0.0071713252212682425,-0.06777831496772699
-0.008998841528278357,-0.06715372667315314
0.04244003994282784,-0.054997252588486714
0.044276657974320545,-0.054322564124213116
0.040376118241636054,-0.05576001298224437
0.03834083047987324,-0.056514437236050166
0.02136665941246132,-0.06271315788299311
0.02097015354518482,-0.06284707536421379
0.016857876637411392,-0.06433017379271097
0.018895028130218802,-0.06358871174643821
0.07356865765217246,-0.04364597769143131
0.07161467221645537,-0.044354492834435905
0.06970028123512742,-0.04505034774496103
0.05013426905173838,-0.052185079288704805
0.048225065248152794,-0.05288660568380833
0.046230834582024274,-0.05361457426530429
0.09310850856377755,-0.036560816793991084
0.07952480690364062,-0.041477808020841764
0.1419766171404811,-0.018898695691853977
0.13999006871500483,-0.019628215318338908
0.14987982258281485,-0.015995513349939334
0.15173922003491333,-0.015335995009639888
0.147830015434426,-0.01674963537300284
0.14578189548488257,-0.01750785771576896
0.14401844186221158,-0.018151301327046468
0.18887045081977355,-0.0018893402912034951
0.1908195951338964,-0.0011675231774916286
0.18709574173086468,-0.0025475887786141
0.19666879968597528,9.930603039769563E-4
0.1966143873706834,9.728905546211818E-4
0.19286255320916978,-4.131766569372698E-4
0.19471908217959993,2.7281815310411855E-4
0.18497239890138084,-0.003333624927312882
0.1829833817907326,-0.004072424464243707
0.1780373685266362,-0.0059284908072566676
0.17912953666107007,-0.005511635206215832
0.21904378307657674,0.009229487240509185
0.21812432916799152,0.008891992283584556
0.2708697932410582,0.02805526566995868
0.268864174893654,0.027330102654887178
0.26696043212352905,0.026642055369141195
0.2903588504404324,0.03511330191696857
0.29236654239490534,0.03583951839727813
0.2865039549609081,0.033717124175170456
0.28845811180550074,0.03442514258430386
0.28456170481730025,0.03301334667212882
0.2825956958032439,0.0323008887395988
0.298010848001468,0.03787513522911938
-0.2734388634221092,0.0018844244006973774
-0.28515765048719866,4.886126447502394E-4
-0.283204519508189,7.137717151320456E-4
-0.2812513885660167,9.37543332638298E-4
-0.020751589866984596,-0.0629381497184655
-0.01889909188377822,-0.06358182953778949
-0.022352128915037003,-0.062449193526594726
-0.020982236995314485,-0.06286222365248902
-0.016861766112946715,-0.06432281149911068
-0.0306892509342038,-0.059512732418813004
0.013023889517311163,-0.0656884866556554
0.015090727459590454,-0.06496789471691455
-0.015099202258720386,-0.06497316355775719
-0.013043467988755376,-0.06572448085033411
-0.011067000860252682,-0.06643157049568717
-0.009129005291826371,-0.06711342886776407
0.036576537177775786,-0.0571592971282124
0.034527372626041164,-0.05792185748548012
0.03445082026922724,-0.05795130621392296
0.0233863586773526,-0.062071746896213836
0.022828232295597984,-0.062241015254804126
0.10486957401053887,-0.032411810934102926
0.10281796670892285,-0.03314485263850384
0.09717272893234372,-0.03512428438774027
0.09699770287549064,-0.0351865567472323
0.09506808295799087,-0.03586765845636799
0.13807367140301252,-0.020329533560155984
0.13775428870222883,-0.020448663502560673
0.10522473692851833,-0.032287473962286456
0.15262295830858988,-0.015037357423630191
0.14999040712103034,-0.016135906586054263
0.15175913979247166,-0.01539072861347687
0.18107601501305626,-0.004782492816839374
0.17721098948392838,-0.006238594980029358
0.29817352443712697,0.03793341143660561
-0.2792982577077122,0.001158156439707484
-0.2773451266685603,0.0013855805884872845
-0.2753919952932178,0.0016256665095670262
-0.2890639098550648,1.358464359701703E-4
-0.2871107808294694,2.8743485222932236E-4
-0.022874132615700937,-0.062349056706135844
-0.030001058462842567,-0.05980544161175256
-0.02325597231850904,-0.062260655015450445
0.03257341167111329,-0.05870052654851015
0.02462885550419576,-0.06176001044253372
0.10104744599406042,-0.03377034014904134
0.09899210325534591,-0.03449472724724753
0.12434519356147508,-0.025450727015235243
0.12639363990878305,-0.024701196761255956
0.12267157574997145,-0.026078326599499994
0.13613631219986794,-0.02108373267417541
0.1342232580955845,-0.021808849404750072
0.13029181679938281,-0.02325725551182633
0.13224121756591123,-0.022536143053492656
0.1284478223015808,-0.0239497230122937
0.10719336039797331,-0.031711470858039006
0.10697231500782256,-0.0317843349805649
0.12258735196383143,-0.026110317477764933
0.12054466732750677,-0.02686241762988497
0.1185488989089314,-0.027596564528389773
0.16261023303287436,-0.011753732124611223
0.163565717689468,-0.01136677750958274
0.16559352772190017,-0.01058794439885462
0.14994137203863908,-0.016164633055416825
0.17523877938430718,-0.0069759633606211215
0.17329203834877402,-0.007704383973277162
