"Plane Section: Position[X] (m)","Plane Section: Position[Y] (m)"
3.4999999999999996,0.0014301145048281022
3.2700000000000005,0.001449619061257017
3.04,0.0015071629929457086
2.81,0.001587824482317311
2.58,0.001721582956553119
2.3499999999999996,0.0019375559416451341
2.1200000000000006,0.002218609523034487
1.8900000000000003,0.0025864256684278554
1.6600000000000006,0.003149238087229909
1.466801251640335,0.003999999999999996
1.4300000000000002,0.004169622945154754
1.2000000000000004,0.0053036046386544695
1.1760000000000002,0.005820290083030274
1.1520000000000004,0.00617014749297902
1.1280000000000001,0.006659825606666509
1.104,0.007067917797253937
1.0800000000000005,0.007467810704766591
1.0560000000000005,0.007756973660450089
1.032,0.008063325127455844
1.0080000000000005,0.008441592805816895
0.9840000000000003,0.008827356921608399
0.9600000000000003,0.009303467033695816
0.9360000000000003,0.009830884807970992
0.9120000000000003,0.0103736530480115
0.8880000000000002,0.010986441440328912
0.8640000000000007,0.011699683242936628
0.855522085001007,0.01199999999999984
0.8400000000000003,0.012547651399929837
0.8160000000000003,0.013449244072387493
0.7920000000000005,0.014450804732044685
0.7680000000000003,0.015540377902105584
0.7440000000000003,0.016785500870009157
0.7200000000000003,0.018140443036856982
0.6960000000000003,0.01961630508933069
0.6915231755898941,0.019999999999999303
0.6720000000000004,0.021620683653688064
0.6480000000000004,0.02394915123383716
0.6240000000000008,0.026593280642130124
0.6140861871905207,0.02799999999999865
0.6000000000000008,0.02998465067959372
0.5760000000000007,0.03392532902558816
0.5655567509593165,0.03599999999999827
0.5520000000000009,0.03863439903353108
0.5280000000000007,0.043461685312921744
0.5260216431379212,0.04399999999999736
0.5040000000000007,0.05041109333868263
0.49954836940715,0.05199999999999632
0.485081205036559,0.05999999999999578
0.4800000000000004,0.06397057665944839
0.47478358372878593,0.06799999999999523
0.46594440180576197,0.07599999999999417
0.46126484540056667,0.08399999999999358
0.4600168556653811,0.09199999999999285
0.45890293187199704,0.09999999999999232
0.4563004061741107,0.12166666666665894
0.4559999999999992,0.12255498759534508
-0.5261413850766565,0.04399999999999583
-0.5279999999999998,0.04349089657547443
-0.5001384617906226,0.051999999999995064
-0.5039999999999999,0.050599030098034514
-0.5656071134298182,0.03599999999999664
-0.5759999999999998,0.03394516460828213
-0.5519999999999998,0.03863087558600277
-0.48549426496636305,0.059999999999994294
-0.47307457012547666,0.06799999999999357
-0.48,0.06356086481124326
-0.6139315183431856,0.02799999999999747
-0.624,0.026549783497668823
-0.6,0.02999468075652756
-0.46233507104116733,0.07599999999999274
-0.648,0.02390692807462081
-0.458646104323817,0.08399999999999215
-0.6920763187533365,0.019999999999998196
-0.696,0.019663261372310982
-0.6719999999999999,0.021658675024567087
-0.4595090078901455,0.09199999999999131
-0.7200000000000001,0.018087612154071134
-0.45894548071913377,0.09999999999999082
-0.744,0.0167062657831697
-0.4560000000000022,0.11859709882832242
-0.768,0.015492062996132133
-0.792,0.014417101900428986
-0.8160000000000002,0.01342556810238115
-0.8545337420896033,0.011999999999999154
-0.8640000000000003,0.011660680889527805
-0.8400000000000003,0.012520747527154163
-0.8880000000000003,0.010942240355527525
-0.9120000000000001,0.010310464076970541
-0.9360000000000002,0.009754226736983139
-0.9600000000000001,0.009246815221734962
-0.9840000000000002,0.008762856052622694
-1.008,0.00835410827596584
-1.032,0.007984831958513072
-1.056,0.0076694010028087916
-1.08,0.007384164975257544
-1.104,0.007057187381534241
-1.1280000000000001,0.006742153383574128
-1.1520000000000001,0.006323627557652386
-1.1760000000000002,0.006023233803454937
-1.2000000000000002,0.005431457374096154
-1.4693517977730026,0.004000000000000191
-1.6599999999999997,0.0031534772774191137
-1.43,0.004182837102924815
-1.8900000000000001,0.002600691315152068
-2.12,0.0022145845546243537
-2.3499999999999996,0.0019266889697987526
-2.58,0.001731074594880133
-2.81,0.0015982985867428819
-3.0400000000000005,0.0015014934614724666
-3.2700000000000005,0.0014474093498268062
-3.4999999999999996,0.0014378769039943644
-0.30167285403922517,-0.05417133590380538
-0.3000059909803518,-0.054778074453083685
-0.3593992972858218,-0.0044813509121877475
-0.3569627889210528,-0.007695235048765892
-0.29442575594878184,-0.05681075665334247
-0.29620776143750593,-0.05616183900257913
-0.2923191615748971,-0.05757787444485547
-0.29031304677938136,-0.0583084074876382
-0.28841358011836343,-0.059000120410032386
-0.28646057957365206,-0.05971132844403604
-0.2845194602839318,-0.060418214566045
-0.28255457212544294,-0.06113375238588396
-0.2806015655130887,-0.06184495693282821
-0.3031325131606945,-0.05363883607006437
-0.29810700362211406,-0.055470116351503326
-0.3554938508688732,-0.009249215177879692
-0.35328562745334924,-0.011602104901393122
-0.34971202422515063,-0.01550895729895253
-0.35158828412552234,-0.013303201305471798
-0.3599367143005443,-0.0037884837287893553
-0.2787300754040455,-0.06252646954099961
-0.3033747600006271,-0.053550976588882374
-0.34963554184467116,-0.015573979897166568
-0.3481439425939068,-0.017462346631787834
-0.34617087380421413,-0.019415804226490592
-0.3476828093804666,-0.01790299919955081
-0.36244901933536444,1.1818978362456428E-4
-0.2610715262206371,-0.06895707608154675
-0.25911852192334134,-0.06966828698574791
-0.2572499593481925,-0.07034875332877569
-0.27669554545338737,-0.06326734725760741
-0.27474253412502136,-0.0639785388541963
-0.2729498196353527,-0.06463142615185703
-0.27083652685684717,-0.06540096430497086
-0.2688325863694031,-0.06613073745588749
-0.26497752194687785,-0.06753461893618679
-0.2630390937532785,-0.06824055305322028
-0.30351164217750587,-0.0535031929692438
-0.3457300173671064,-0.0198787224787594
-0.34433106060506874,-0.021369239360539485
-0.3424436558240936,-0.023322682516299896
-0.34377723944198973,-0.021938029150962046
-0.3633045990382583,0.0011447856518654203
-0.36562689588809855,0.0040249754802106075
-0.2552125187458758,-0.07109072366976847
-0.25325951742535135,-0.07180194274829221
-0.2514702975997325,-0.07245358337303215
-0.2669305237789763,-0.06682340126246986
-0.3035702565072878,-0.05348603616073006
-0.34182445438085535,-0.023954998906370296
-0.3405384029771752,-0.02527612868040869
-0.33860334958037874,-0.027229579867493376
-0.3398716659170299,-0.025951781007756233
-0.3672100720248025,0.005755016549731637
-0.369201990790908,0.0079318281292011
-0.23576993523514744,-0.07817124633799145
-0.23763555640541958,-0.07749183142673205
-0.2493535133378288,-0.07322437693317745
-0.2473521404045893,-0.07395322803594499
-0.2395885425170295,-0.07678057058397378
-0.30366340712490386,-0.053457919793285714
-0.3379188719895908,-0.02791614832337653
-0.3366580632238837,-0.029183032779376818
-0.33468018015598067,-0.031136491185536193
-0.3359660769563568,-0.02987395516426969
-0.3711155269231068,0.010472562219223673
-0.37214024009231406,0.011838573435854807
-0.23177657539607635,-0.07962555168993331
-0.23372956042581447,-0.07891428787631133
-0.22999090355430468,-0.08027597644580997
-0.22787060311117097,-0.08104807320606185
-0.22587178994760615,-0.0817759692152352
-0.24544752166375167,-0.07464684520594286
-0.24349452447507938,-0.07535807563067909
-0.2415587873048946,-0.07606303587372445
-0.30374419371619,-0.053437051559406964
-0.33262220133559217,-0.033089963092090724
-0.33401327518550483,-0.03179178874850767
-0.3743410559207957,0.01574519444577927
-0.2150331484806997,-0.08572340967652109
-0.21615269000489237,-0.08531564804779966
-0.2239646163487461,-0.08247055496638572
-0.22201164330803164,-0.08318185170230274
-0.22007860343623442,-0.0838858340975783
-0.2181056621691012,-0.08460434890495275
-0.3038737484995919,-0.05340145235710895
-0.3320604579728025,-0.03361800820542732
-0.33022268674263044,-0.035043492565574375
-0.3276343796958471,-0.036997053860620834
-0.32815470202760694,-0.03654948882132497
-0.37502073783968404,0.0166376140620074
-0.21429009906687865,-0.08599421071193514
-0.30408433932219475,-0.053339386135682273
-0.3301075897583331,-0.035141642008397755
-0.326201854773458,-0.03819747694993819
-0.3254134970056005,-0.03895055322513484
-0.32333217021214344,-0.04090402906706094
-0.32424904142328825,-0.040046612160466205
-0.37724718215070985,0.01965193433799208
-0.21029392118213594,-0.08744995098325173
-0.2085120474017847,-0.08809972543320548
-0.20638843336917975,-0.08887380287730139
-0.20439228404946377,-0.08960101765936246
-0.21224687437811518,-0.08673859975294744
-0.30405919813924404,-0.053378422190396284
-0.3212097443680173,-0.042857511836360884
-0.3222962229777629,-0.04186551747037298
-0.3789260539183217,0.02217875553101909
-0.3800877291933467,0.02355866317662437
-0.2005301568814174,-0.09100945778290839
-0.2024827823065657,-0.09029720648174966
-0.19860004557691865,-0.0917130756282667
-0.30380047407709815,-0.05353700078853546
-0.3203433980624925,-0.04364603872911958
-0.3186524543670207,-0.04481106790339069
-0.3157611121551463,-0.046764680275967696
-0.31643757881642764,-0.04620196496695928
-0.38283148656552685,0.027028313559525105
-0.38322055698458857,0.027465441280098857
-0.1849086918844816,-0.09670620063315091
-0.18291523462498785,-0.09743279948248802
-0.19076703512158133,-0.09457072902368195
-0.1888141244031302,-0.09528219689885974
-0.1870358478746803,-0.09593064254742976
-0.19836569565206255,-0.0917985289445236
-0.19467252810594007,-0.09314689133047777
-0.19281311253577643,-0.09382495400618965
-0.303916269635391,-0.05356902976057787
-0.3056986825357655,-0.05277408894700085
-0.3056641487626201,-0.052831574560351494
-0.3183905011587034,-0.04499946316404734
-0.31448472095580693,-0.047787026563711074
-0.3132343685503326,-0.04871823119430088
-0.3853865992388804,0.03137205642882245
-0.18135731157266097,-0.09800054254315063
-0.19662499452667873,-0.09243420339731555
-0.3057925496707664,-0.052716491358629325
-0.30667296773227803,-0.05221819525713754
-0.306273023402157,-0.05262565460643394
-0.3125318428087921,-0.04925173207570969
-0.3887283763292083,0.03918511980683777
-0.39578364759909246,0.05481130921694803
-0.3984509026998042,0.06015784961253838
-0.4032113296964436,0.07043756139808706
-0.3996549602652779,0.0626244618498495
-0.17712287712362723,-0.09954411015365944
-0.17905031635647378,-0.0988415835705715
-0.1731928274080619,-0.10097940108844836
-0.17514522049498593,-0.10026651177791504
-0.17133624631455247,-0.10165597976407945
-0.1810030797107439,-0.09812971102790614
-0.31057890286918094,-0.050349831584054476
-0.31008527490191284,-0.050671887011692396
-0.30862598519638373,-0.05158003668012672
-0.39064127229554513,0.04313231964182347
-0.39239814738471773,0.046998238469268046
-0.4062610354032685,0.07420331541117514
-0.1692869693657274,-0.10240223631890369
-0.16723230880113446,-0.10315027442108968
-0.16143696993461043,-0.10526123167990481
-0.16342803772185896,-0.1045360921415591
-0.4095915983052958,0.07825113692342225
-0.4214381521241677,0.1173156342521985
-0.4218785237204727,0.11877029459082564
-0.4266923381628309,0.1329415200837371
-0.43749897303300855,0.14577014244941097
-0.15171008487429738,-0.10880355785223535
-0.14985640454504695,-0.1094787849446909
-0.15952205487292612,-0.10595858464846468
-0.15756907676128426,-0.10666986745943746
-0.15564417558535748,-0.10737091179283154
-0.16546872039626828,-0.10379262954001095
-0.4140716261414084,0.0855313317278798
-0.4145364408673041,0.08606447050317255
-0.4181271489733478,0.10169007595026025
-0.453125513808581,0.13663027379806977
-0.14575285055223178,-0.11097566666954825
-0.14780444216982763,-0.11022698440847416
-0.1436457448076651,-0.11174596113629391
-0.14398972088547607,-0.11161999909504629
-0.15366310811293468,-0.10809239896168349
-0.4543001913776186,0.13294617347435542
-0.14194921187612136,-0.11237100427594579
-0.13996191243310865,-0.11309845819673982
-0.4565423111706221,0.11732155116877707
-0.13804510581474683,-0.11379865051110907
-0.13609291706682175,-0.11451210094411576
-0.1349516878851232,-0.11493049655970262
-0.13023982810012535,-0.11666200097497638
-0.12839255767107546,-0.11734546130950257
-0.46067177742829324,0.07825974664849585
-0.4609478794667758,0.07809949438578483
-0.4548061682058936,0.08607125809255403
-0.45780055009822024,0.10169676302698281
-0.12817854157982192,-0.11742475992916358
-0.13417301502288634,-0.11521839761849524
-0.13219166763934845,-0.11594759160191725
-0.46876105967722315,0.07406456839283473
-0.12634534828712424,-0.11811608124522012
-0.10691122913481774,-0.12516407912189118
-0.10852600762359907,-0.12458144886454531
-0.47255608952070915,0.07044924967576907
-0.12429694454420562,-0.11886572646071354
-0.12048978553084379,-0.12025918815809822
-0.11849177796920693,-0.1209871822221861
-0.09898694162038738,-0.12802814579593197
-0.0970040248763791,-0.128751528127499
-0.10485207993925642,-0.12591133373305047
-0.10876101957906957,-0.12449696068356103
-0.10280359803012859,-0.12665296530028125
-0.10103575833040697,-0.12728582519614465
-0.47657500875951253,0.06546804357979694
-0.1146290551443242,-0.12238810456669541
-0.11658314394991351,-0.12167987176249986
-0.11270693344955718,-0.12307980626559167
-0.11071827997497065,-0.1237974371839935
-0.1225337620912591,-0.11951064020990482
-0.0950829620865616,-0.1294561394804359
-0.09313155970169132,-0.13017174929556447
-0.47871340278040775,0.06263778739934284
-0.09121473892511515,-0.1308694828262829
-0.08727192933705939,-0.13230368640507628
-0.08922637017082363,-0.13159642028331264
-0.08542529475229471,-0.13296999389158295
-0.08336499278285868,-0.13372356000195407
-0.08132053254696457,-0.13446842814583648
-0.07750719769914305,-0.13586053686093333
-0.07552599213816288,-0.1365805445489098
-0.4843891838860485,0.0555304328848682
-0.07955645090366005,-0.13511235193036839
-0.07360038814785952,-0.13728075921252597
-0.07164916646609937,-0.1379968652450942
-0.07024260940712759,-0.1385227743462766
-0.06396401676695934,-0.14084355876844695
-0.06580670553284004,-0.14017595024996157
0.29615058272679645,-0.05628365826400723
0.29436795299095225,-0.05693305218901809
-0.48672490589526624,0.054826637652470256
-0.06974220848937565,-0.13871313204079208
-0.06775894852097801,-0.13946264876258588
-0.06190120825327532,-0.14159977614835922
-0.007197279383473821,-0.16141380956900037
-0.005319226796468279,-0.16209534287948124
-0.007623678239167675,-0.1612593571801707
0.016765038888495634,-0.1579039699100695
0.01880341711724311,-0.15716588031064302
0.27664151828407674,-0.06340016859902489
0.27626241031200605,-0.06353882903494815
0.29226120018884383,-0.057700105613624035
0.2919311977438999,-0.057820351933091964
0.2786758150275906,-0.06265864947264788
0.28054690012352174,-0.061976023195777205
0.29805369248981795,-0.05559080770292242
-0.4922020626844915,0.05328373814282138
-0.06176927876496062,-0.14165005214690624
0.012942291034824562,-0.15929313586109828
0.01499903258253323,-0.1585448259097966
0.010970002088073895,-0.16001056618537582
0.00709790516322895,-0.16141446386167713
0.008731183153965481,-0.16082212244423927
0.005219276738942808,-0.16209648330012622
-0.0033938843549031423,-0.1627946564960811
-0.0016400125596166145,-0.16343414997740327
-2.410961806770528E-4,-0.16394780659078131
-0.010392359604256282,-0.16025933231605322
-0.009140988286054023,-0.16071143887985073
0.022713324788027043,-0.15575417622692295
0.023347091005200986,-0.15552570742559002
0.01902488798663833,-0.15708570530541255
0.02087611798804618,-0.15641758430342018
0.27469106554696676,-0.06411839388308048
0.2729013530931456,-0.06477953389754604
0.2999543064058786,-0.054896635126638185
0.29025578684894016,-0.05843243675003876
0.28640432901887425,-0.059838038183855524
0.28835714219566355,-0.05912633023060396
0.2844636671170875,-0.060546180221546425
0.2824993822728435,-0.06126337660127136
-0.059870474340248406,-0.14237452195360645
-0.022817438282305272,-0.15575895702092907
-0.020981328979977176,-0.15642538375521464
-0.01823020052784179,-0.15741742722256435
-0.016869019403618048,-0.15790839788311822
-0.025347647033301404,-0.15484402771982037
-0.024771555985026023,-0.1550508035693297
0.009039508259325379,-0.16071062463981176
0.0032934291818144832,-0.16279611983891362
0.0015387778548030173,-0.16343725880843935
7.003641400310471E-4,-0.16374356867664525
-5.118266112665781E-5,-0.16401844457720177
-0.015103143319085232,-0.15854964890118267
-0.013046736917547434,-0.15929910180686244
-0.011073274209565763,-0.16001434686635518
0.026954830874370537,-0.15423178168831359
0.026670341569042473,-0.15433327301537303
0.024669412241821394,-0.15505144032196505
0.08534055716971473,-0.13301847445599785
0.08575821978349817,-0.13286806564408915
0.19410591142395292,-0.09349502635232709
0.19462720081028081,-0.09330365164610356
0.1985561499721995,-0.09187376754667738
0.1992019992515064,-0.09164117476424412
0.2707898190792518,-0.06555390708777084
0.27033041158172044,-0.06572451112543184
0.30163309313424624,-0.0542847064552527
-0.05909264499867076,-0.14268720835164414
-0.018908601570076004,-0.15717361214123382
-0.02879105678875543,-0.1536178185089773
-0.02868703495536721,-0.15365438776401213
-0.026772995295380655,-0.1543340273345442
-0.031174250199365316,-0.15279157226337925
-0.030650502933273545,-0.15297191051486983
-0.03260260560607843,-0.15232827281915348
-0.032749036498090744,-0.15228052654124524
-0.04377514536681501,-0.148358891646508
-0.044368158699788426,-0.14812147004708137
0.028583568699529847,-0.15365141563260343
0.08327904789958061,-0.13376872520231692
0.08718725110872237,-0.1323523355155269
0.08181250857560206,-0.1343034339572749
0.18700667872753335,-0.0961318242193452
0.1882118723691456,-0.09570157870365292
0.19657906865946653,-0.09258931639034403
0.19463254856384216,-0.0933183521868728
0.18539508432535212,-0.09672626806635201
0.1985703658405294,-0.09191284581562925
0.2714834100329415,-0.06534668913124889
0.2708120784074947,-0.06556289265301062
0.27079513055791127,-0.06556850791177812
0.27668336974318086,-0.06351521486542601
0.27472751989687105,-0.06421860393405752
0.2741754136975155,-0.0643998742405767
0.2729261943746866,-0.06484782056555904
0.3033088208827894,-0.053662376305734116
0.2769115551325516,-0.06343446453336819
-0.05813569805644563,-0.1430996726448756
-0.05757044954993707,-0.14333517811280305
-0.04864551215786593,-0.14658529338165288
-0.048320703469280746,-0.14669687254001285
-0.04631744441954298,-0.14740004779104116
-0.03448906718369123,-0.1517405203532315
-0.04256127066438124,-0.1488777949329499
0.030424088898095746,-0.15299748057733156
0.07242156472755823,-0.13771966553636036
0.07155938113228749,-0.13803148178425556
0.07080766793308527,-0.13830676788558763
0.06570998638556011,-0.1401915550414058
0.06766032255632404,-0.1394730093259008
0.0638697421333265,-0.14086588047993215
0.10476216182176852,-0.12599643874750188
0.10272581683442693,-0.12672057596618538
0.0911310134754658,-0.13092075184662738
0.09304819865970672,-0.13022401998019917
0.08914138060338031,-0.1316442173397259
0.08123477407619949,-0.13451410646982367
0.07543979666644744,-0.13662502444310407
0.07742012393825506,-0.13590260342148108
0.16338493572088417,-0.10469898549027559
0.16139462417992745,-0.10542620430540706
0.1654277029947912,-0.1039612526212906
0.19075273181034075,-0.09481277393772027
0.18879240120046747,-0.09550384575079482
0.19659391112027158,-0.09263011711118721
0.16839158512363767,-0.10291179018935152
0.16719697950720613,-0.1033345332210906
0.18490729475614698,-0.09698372657064072
0.18480342466423128,-0.0970351355016003
0.1771120057512253,-0.09979559596609738
0.17896878640875447,-0.09915765649453377
0.2591390106014808,-0.07000594952235505
0.26109234771891676,-0.06929565316582964
0.25726976433920434,-0.07068453680329133
0.23766606743878865,-0.0778570486673856
0.239614973427494,-0.07713457149741479
0.23580215665154994,-0.07854116563898306
0.3554436190242871,-0.009487742422406778
0.35332217425415025,-0.011721205871974377
0.3497847053525145,-0.015626859675934135
0.35153669162003254,-0.01350634886589393
0.27474313611775064,-0.06426153165858285
