"Plane Section: Position[X] (m)","Plane Section: Position[Y] (m)"
3.5,2.287574213689727E-4
3.2700000000000005,2.314887988792264E-4
3.04,2.4015942227029294E-4
2.8100000000000005,2.536016908598461E-4
2.58,2.7337956026065376E-4
2.35,3.084849587172804E-4
2.1200000000000006,3.548853330695975E-4
1.8900000000000003,4.159178709696289E-4
1.6600000000000006,5.109259695803585E-4
1.4300000000000002,6.53354592327905E-4
1.2000000000000006,8.037922830076333E-4
1.1760000000000002,8.852837690446918E-4
1.1520000000000001,9.144853922740613E-4
1.1280000000000001,9.490802695543527E-4
1.104,9.883314584106127E-4
1.0800000000000005,0.0010283826226587548
1.056,0.0010694869056218272
1.032,0.0011131381882280751
1.008,0.0011624461935037752
0.984,0.0012130661061360206
0.96,0.0012650890830802949
0.9359999999999999,0.001325040433466253
0.9120000000000001,0.0013891826237956715
0.8879999999999999,0.0014566629932525094
0.8640000000000002,0.0015319721032285081
0.8400000000000001,0.0016144759452865942
0.8160000000000001,0.0017030893452045
0.7920000000000005,0.0018027953418896167
0.7680000000000006,0.0019106548650280621
0.7440000000000007,0.002029578403309292
0.7200000000000004,0.002165567761892144
0.6960000000000006,0.002320041568958544
0.6720000000000005,0.002499495929382951
0.6480000000000004,0.0026979484197227456
0.6240000000000003,0.0029353632499095404
0.6000000000000003,0.003257671217392938
0.5760000000000001,0.003734764842036241
0.5668514740858459,0.004000000000000369
0.552,0.004438259920876335
0.528,0.005449922066358618
0.5040000000000001,0.006200475086996604
0.4800000000000001,0.006939981461616164
0.45599999999999996,0.005968080409477985
-0.48000000000000026,0.006931175296700011
-0.456,0.005978121208626888
-0.5040000000000003,0.006267769181739399
-0.5280000000000001,0.005509652782329878
-0.5671944746778741,0.003999999999999158
-0.5760000000000001,0.003750632407216083
-0.552,0.004440134397750388
-0.6000000000000001,0.003281670284172266
-0.6240000000000001,0.002941170182343884
-0.6479999999999999,0.0026973441249294964
-0.6719999999999999,0.0025050156817603
-0.6960000000000002,0.0023221836894301686
-0.7200000000000001,0.0021681599543520434
-0.744,0.002033834239366453
-0.7680000000000001,0.001910330337175302
-0.792,0.0018031712787479476
-0.8160000000000001,0.0017040608320631162
-0.84,0.0016130076711719159
-0.864,0.0015318626677110585
-0.888,0.0014575928245592988
-0.9119999999999999,0.0013878882502257354
-0.936,0.0013242974521448134
-0.96,0.0012646331566516077
-0.984,0.001211490524908965
-1.008,0.0011608372451959446
-1.032,0.0011135801720573344
-1.056,0.0010691525810023169
-1.08,0.0010248590197125245
-1.104,9.859328596438016E-4
-1.1280000000000001,9.479799338629867E-4
-1.1520000000000001,9.180592270343042E-4
-1.1760000000000002,8.865532012335406E-4
-1.2,8.014900199134655E-4
-1.4300000000000002,6.524778551416768E-4
-1.6599999999999997,5.104943206491356E-4
-1.89,4.169272074422785E-4
-2.12,3.537789609616821E-4
-2.3499999999999996,3.083636225892848E-4
-2.58,2.744656963890381E-4
-2.81,2.539450925293119E-4
-3.04,2.4034270069914188E-4
-3.27,2.3160313675588953E-4
-3.5,2.2915106621602954E-4
-0.29997157823022935,0.024621429071865687
-0.30081293194347497,0.024927586270234347
-0.2943908058577459,0.02258986826195402
-0.29617287608596976,0.023238618428500172
-0.29228409395527205,0.02182307081981167
-0.2902778927214457,0.021092774982650678
-0.28642526274138963,0.019690301068154323
-0.2883783450624563,0.020401284504338778
-0.28448406344563043,0.018983634681625713
-0.28251909676448433,0.018268312523461658
-0.28056601734632836,0.01755730793674014
-0.2980722403204933,0.023930057924713068
-0.30163906381828726,0.02522747675822875
-0.2786944599061745,0.016875980253567784
-0.3033420929566833,0.025847683955089143
-0.2610352716154493,0.010447128983174965
-0.25908220117025865,0.009736099749145183
-0.25721357415456914,0.009055810386111566
-0.27665986030417167,0.016135293835014882
-0.2747067834181015,0.015424282293054852
-0.2729140159351653,0.014771540521800677
-0.27080063476528665,0.014002245147157007
-0.26879661821865336,0.013272680887023203
-0.26494141483989764,0.011869181039925746
-0.263002909487659,0.011163458829940506
-0.3033704805498767,0.025857935635611392
-0.2551760633022437,0.008314032979132696
-0.25322299378911606,0.007603001184875357
-0.2514337229094541,0.006951500753156511
-0.2668944875638954,0.012580204014435508
-0.3035298081564427,0.025912082809837714
-0.23573278019660188,0.001235431644312135
-0.2375984693985151,0.0019146597164643219
-0.2473154193283582,0.005452258139686377
-0.249316863561321,0.0061809134284688035
-0.2395515342645927,0.002625704275422574
-0.30361390661155196,0.02593679337388901
-0.23173927340922063,-2.1847013936642255E-4
-0.23369233789731403,4.925754578506971E-4
-0.22995352682800355,-8.686896618284061E-4
-0.22783314155717765,-0.0016405534342830187
-0.22583426955245556,-0.002368287845203464
-0.24541073149723974,0.004758830715970176
-0.24345766609699374,0.004047787624292392
-0.24152185638667217,0.0033430266004687986
-0.30376664653942453,0.025984767550394167
-0.21425203798341355,-0.00658504448191549
-0.21611477683620595,-0.005906888018276234
-0.22392702133643283,-0.0030626686785096657
-0.221973957072945,-0.003773714892678726
-0.22004083850110606,-0.0044774811495579955
-0.21806782492077298,-0.005195797363199457
-0.30390856919246656,0.026025491069968286
-0.20847343039383393,-0.008689032601357956
-0.21025559461361532,-0.008040055689046756
-0.20435321185333805,-0.010189074822115807
-0.20634948998133118,-0.009462213752262975
-0.21220863957980707,-0.007328956468296999
-0.3040926081610221,0.026077732873212345
-0.2027820562187393,-0.010761185543924417
-0.3043543235291489,0.026156259957992617
-0.18981837568185267,-0.015486155464340425
-0.1907266102906171,-0.01515507294751901
-0.20049067728409517,-0.011596396449912836
-0.20244345824771662,-0.010884572056443295
-0.19856051493425067,-0.012299874300964131
-0.19277276784431904,-0.01440951785861479
-0.19463231985284496,-0.013731829690203753
-0.3048202077408794,0.02630729850392169
-0.3054994871735025,0.02654551356342953
-0.3055100087647675,0.026548730077345477
-0.1848683358624512,-0.01729073418399256
-0.18287482368823751,-0.018017182388862858
-0.18877391602547652,-0.015867135487814994
-0.18699583332526437,-0.016516113799466426
-0.1965850586344105,-0.013019889429402118
-0.3057519127277528,0.02661981437648646
-0.17900977530295645,-0.01942560946358172
-0.17708224714438878,-0.02012789197051223
-0.17315106676833292,-0.021560078279223353
-0.17510391343064372,-0.02084843434952297
-0.17129450370288657,-0.02223670662542554
-0.18096266157491384,-0.018714074335226073
-0.3058206495713659,0.026644137793974187
-0.316134581508438,0.028728158947426113
-0.31640379284159825,0.028799328674673743
-0.16924525664961682,-0.022983045323985794
-0.16719064048233456,-0.023731205357790372
-0.16249773976097245,-0.025440583280461247
-0.1633862570906562,-0.025116714742457757
-0.3077314430799025,0.026774406960583752
-0.3085914304856861,0.02695425793151157
-0.30639798532102597,0.02672316163708967
-0.3222630895089843,0.02984940253119236
-0.3203099873443735,0.029543277721254223
-0.3183568882733121,0.029195691439344244
-0.3144507062079092,0.02828505010239398
-0.31249761622034866,0.02781572190607705
-0.3242161957872345,0.030100394237990824
-0.16542694654677814,-0.02437327065723094
-0.1613954832233011,-0.025842661677020057
-0.3105445235669141,0.027382123144549297
-0.3066383375747846,0.026524109902795794
-0.32812245195592293,0.030017863874612305
-0.32616931055612897,0.03023758979174712
-0.1516695089944163,-0.029387489935296045
-0.14981581161879143,-0.030062670278246825
-0.1594806316058798,-0.026540188947034797
-0.15752786097280194,-0.027252041716853852
-0.15560320724973697,-0.027953765808099044
-0.3295297198911591,0.028729158395767878
-0.3277801442263897,0.02677590284964987
-0.32812265606161267,0.027282330831789995
-0.14571218679789544,-0.031559358158074174
-0.1477639070377722,-0.030811028767894093
-0.14190568625094885,-0.032946837348516195
-0.14394844395242695,-0.032202006889715154
-0.15362232214904864,-0.028675753965375375
-0.13991747406421443,-0.03367178510534377
-0.3261696549268422,0.025622150292727817
-0.3252341245630872,0.024822587878642013
-0.32262280140764266,0.022869268035163526
-0.3242166433473117,0.024101955998529392
-0.13835801778425383,-0.03424109481004345
-0.1301910217636733,-0.03722333588101228
-0.12834081387143192,-0.03789873027611915
-0.32040314648868823,0.020915977415133263
-0.3222636324298633,0.022572888077651773
-0.12628573217468841,-0.038647732737474065
-0.13800060765705663,-0.03437181377465337
-0.13604897077945882,-0.03508678078893302
-0.13412695154199566,-0.03578726374175604
-0.13214345619467494,-0.03651055961801559
-0.32031063839270585,0.020817581614582803
-0.318668269067207,0.01896272296568549
-0.12423651635444352,-0.039395148288672
-0.1204277633418271,-0.040784233395197114
-0.11842997815548427,-0.04151283841852372
-0.3183576915775854,0.018429380210878976
-0.3175580003421021,0.01700951512002522
-0.11456909328100909,-0.04291880789220346
-0.11652235410692006,-0.04220830160348539
-0.11264960463057921,-0.0436177400365287
-0.11184240884349042,-0.04391272497342801
-0.12247277249979666,-0.040038520712189996
-0.1068659622490187,-0.04573513838264076
-0.10871250270904341,-0.04505909441158089
-0.31726472675015593,0.015056368232635842
-0.11066432974814597,-0.04434464974045077
-0.09895032537745885,-0.04862296150732878
-0.09696923453019013,-0.04935135964218337
-0.1048084433704656,-0.04648687056858678
-0.10276207297082993,-0.04723430102046146
-0.10099768978429699,-0.047876652610567935
-0.31809850254641026,0.013103305437519282
-0.09625395620397748,-0.04961552076755212
-0.3212572136266,0.011150416112263929
-0.32031132493634407,0.011616158510971974
-0.31835810438509965,0.012896714260241495
-0.09117607368513309,-0.051458673217230654
-0.09263876132022467,-0.050931649577884146
-0.08723380400869885,-0.0528943594842038
-0.08918618960435254,-0.05218144907834277
-0.08539066358244687,-0.05357026329828299
-0.08332744967263182,-0.05431583165119168
-0.0812794243369225,-0.055050907157387405
-0.0950501943118424,-0.050061528000128405
-0.09309530521032311,-0.050767561676908594
-0.07548365141321109,-0.05715963862756461
-0.07746515482627597,-0.05644044944369843
-0.3222645036379885,0.010896493277003962
-0.32421765758808613,0.010508561525915412
-0.07951347791423222,-0.055689709106865735
-0.07355582161563622,-0.0578537391199998
-0.0716035113940647,-0.05856685656638048
-0.06969111378587156,-0.05926818722512288
-0.06770082625304022,-0.05999840742366646
-0.06645942718879647,-0.06046236009104229
-0.06392098935688618,-0.06142078036253541
-0.06575635813556627,-0.060733065872248776
-0.3281239500556865,0.0099395338399169
-0.32617080563579287,0.010199736734537546
-0.06263422519584838,-0.06189656171527298
0.2649574317882743,0.011792187392152584
0.2630194617047215,0.011084994134881423
0.2621522785433889,0.010768363721657858
0.26105286915618175,0.01036579154918741
0.2591010424002596,0.009651344444067745
0.2572333962070699,0.008968359600176768
0.274721120594292,0.01535190518000094
0.2766738886499839,0.016063765484818037
0.27292868914031715,0.014698239869022016
0.2787082377585469,0.01680514035084307
0.2805795931232454,0.017487023416620256
0.2961877919934154,0.02316712642207766
0.2944049506430323,0.02251818967533579
-0.33398337576815207,0.00926007698361885
-0.3320302337286025,0.009488377227022816
-0.33007709224227005,0.009709262958978568
-0.33446017464514377,0.009198276216282969
-0.061859814488085446,-0.06218148642727864
0.2708155176714578,0.013928368175923312
0.26881183984126833,0.013197873017577126
0.26691007620942075,0.012504387458962613
0.2551968217458936,0.008224008806876222
0.25324454531478363,0.007510797461017247
0.2514561276866984,0.006856952089361601
0.24733963632178346,0.005352729172792948
0.24934009383482758,0.006084096159224596
0.24628963479685761,0.004968429557044346
0.23763082935515611,0.0017927525715092508
0.2395824522263037,0.002507759975484852
0.23576652214908483,0.0011097265446289673
0.29029134493285497,0.021022733507392324
0.2922976792988834,0.021752535696030643
0.28643858692263574,0.01962070611539896
0.28839171718285944,0.02033154234385909
0.2844974153392647,0.01891396527918327
0.28253253497685393,0.0181984061047204
0.29809136963983246,0.023859293936924982
-0.33593651498072835,0.009069665344524271
-0.058051592424345363,-0.06356409352207479
-0.05846631521424285,-0.06341390907331279
-0.05981850016233313,-0.06292717865452788
-0.05599788225918563,-0.06430710027177317
-0.05402114556507285,-0.06503129321874301
-0.05391638632700872,-0.06507033222227059
-0.04428325696985034,-0.06858370647471732
-0.04244812345422162,-0.06926247095303223
0.005267424970994167,-0.08267663169919243
0.005916845679369944,-0.0824412292406224
-0.004193537438296806,-0.08307197748547976
-0.0033514595460953705,-0.08337522490576842
-0.00631196167020066,-0.0823130865918649
-0.005279432023160313,-0.08268251920069765
-0.0015962933078047178,-0.08401325802553035
-6.0025002621791E-6,-0.0845933186745782
0.23177634711519993,-3.533314392951999E-4
0.2337276714915908,3.624962626842845E-4
0.2315525037934193,-4.358187278085496E-4
0.24543652726634357,0.0046549630186188615
0.24348543208982412,0.003938505448966368
0.24155123490238378,0.0032293129509524893
0.29999400364487183,0.024550564001947592
-0.33984279114719623,0.00871911411481438
-0.3378896531177129,0.008893669334509375
-0.052099058100234116,-0.06574925662756974
-0.050150647038306934,-0.0664730844401201
-0.048238270536489894,-0.06716589411324819
-0.04623896261850785,-0.06787991572196377
-0.04038627332513066,-0.07003091842791435
-0.03835279718317364,-0.07079031513575691
0.009088824057544149,-0.08129336644645617
0.010511157283817166,-0.08078175557055432
0.011021800812708423,-0.08060007058415172
0.012361345777902929,-0.08012699457197395
0.007146689161760192,-0.08199596128661474
0.00334081582114897,-0.0833750315425213
0.0015847974642633996,-0.08401328015265028
-0.007161533180024118,-0.08201163273533701
-0.008427152709749553,-0.08156153849531886
0.16470018004670312,-0.024762425992829663
0.16545606291736809,-0.024486272109079034
0.1672201348324304,-0.02384524548627878
0.16769941538241806,-0.023671047024704274
0.2299940736131839,-0.0010130954907991683
0.22787599439937672,-0.0017912966175270863
0.22587969187124263,-0.002526092330191331
0.30167601892433354,0.02516037634817079
-0.3437490659215735,0.008387220399457851
-0.3417959287885872,0.008549760306606091
-0.03792441871602141,-0.07095471182825719
-0.03455236357141179,-0.07223350551734403
-0.032952860036240476,-0.07285827344536516
0.013002148305365255,-0.07990476436576159
0.014125232586327658,-0.07951288563157338
-0.009855790602106512,-0.08106918192862375
-0.009111586763978066,-0.08132632299721933
0.06574967550985561,-0.06074772145472466
0.06770191253758098,-0.06003440182382974
0.06391005635730011,-0.061423763504012685
0.0598062779444044,-0.06292662429425595
0.0618474828970202,-0.0621806303838385
0.05804154720171864,-0.0635695192587308
0.055990008868071275,-0.06431849261358118
0.05401201358266653,-0.06503922874198641
0.05208361415703869,-0.06573985369240236
0.05046370046544223,-0.06633145184510778
0.08541177735536395,-0.0536612998227034
0.08725185679688927,-0.05297698199653378
0.07705297872154376,-0.05665599266365909
0.07549352551235591,-0.05721978047360586
0.1614326629743138,-0.025977823071949728
0.16341917284853819,-0.025240157633135793
0.15096760300798476,-0.02982193965099569
0.15171381644441198,-0.029542241062994672
0.17319571284330393,-0.02171575639356826
0.17419626010148173,-0.02136936258653222
0.17133080628276665,-0.022369456220212136
0.16927750461661195,-0.023104652569385677
0.22397570513378728,-0.003229436164314592
0.22202576358634013,-0.003949064039658864
0.2200950554463599,-0.00465945451031635
0.21431730203534027,-0.006797376816461663
0.21617573349671498,-0.006107383072875258
0.20855004084195902,-0.008932546447050289
0.21032781045214802,-0.008271492508823655
0.20518802236279088,-0.010185539317566045
0.20643067109300625,-0.009718288361665705
0.21227709737342745,-0.0075500656452947325
0.3032312290243788,0.025735961140122637
-0.3476553387230208,0.008081768981112446
-0.34570220258068673,0.008231031612075093
-0.03659704094010304,-0.0714586242202191
-0.0325949339019374,-0.07300262783928446
0.015069899431435385,-0.07918670020694164
-0.01105839551936453,-0.08066895532120653
-0.01181861961022852,-0.08039622346870152
0.04243807282358479,-0.06926788969272178
0.044276858481574255,-0.06859915728132703
0.04037522676359985,-0.07003360761419221
0.03834264316553139,-0.07079546503852177
0.016304662498470113,-0.07876143863715036
0.01684754019720616,-0.07857781405101649
0.018896216535181025,-0.07786802365022114
0.07356656406630177,-0.057916264190945074
0.07161131088610287,-0.05862129508711512
0.06969545002836562,-0.05931311049992587
0.050131297817892335,-0.06645295536636958
0.04822393861595796,-0.06715955182998201
0.0462321605812586,-0.0678942608215459
0.0911955370872177,-0.05154517192397462
0.09311394956366202,-0.05085181259081907
0.08920367107978178,-0.052262500614103244
0.0833478217039239,-0.054404827577842554
0.08129783509837492,-0.0551345090462414
0.07747657625938188,-0.056504844369846555
0.11898380610122136,-0.04155402430141786
0.11849401717583156,-0.04172182530926182
0.159516941702107,-0.026672960667484508
0.15756514492009824,-0.027387490144369663
0.15564202369426003,-0.028093426209800064
0.15365986073980192,-0.028811903089691192
0.14987131626457809,-0.030248192791685925
0.14577142101759993,-0.03175513123797754
0.14781993345310618,-0.03099798579008826
0.1440159122191385,-0.03242040836665905
0.14212309657040828,-0.033133966477124986
0.19316252823942026,-0.014701900730354186
0.19474904885011665,-0.014085596002884884
0.17320629299964696,-0.021744831882972486
0.17136849328230816,-0.022473024439846553
0.17097497781561785,-0.022635178333746696
0.21824296762072012,-0.005341393847595962
0.21812460425401847,-0.0053848125427649746
0.20444163922039632,-0.010465063089585957
0.2005881253742151,-0.011897175308789396
0.20253657911021694,-0.011173458756063407
0.19866344564200863,-0.01261572041730008
0.30335964730658654,0.025783766895423315
-0.351561609199804,0.007807473865703908
-0.3496084742821633,0.007940322601885867
-0.021079856269935953,-0.07718069666859201
-0.021010773226588654,-0.07720165568823459
-0.01868220145841436,-0.07795993211063959
-0.01686443442832028,-0.07859119371954916
-0.03074120944408848,-0.0738038985320241
-0.01509324884855515,-0.07921786162398119
-0.013036728743573207,-0.07996701600050524
0.037752374279067316,-0.07101934688163297
0.019702951571521462,-0.07758727441252533
0.02098463610080575,-0.07716292291240169
0.021996710262035774,-0.07684624539448297
0.10122723556405355,-0.04792175004219238
0.10102778035420186,-0.047992353028838836
0.10485979761629925,-0.04666100487930552
0.10280419263122795,-0.04738305869708785
0.09897737292674544,-0.04873029981716408
0.09699292779515184,-0.049449483001956715
0.09506812906013223,-0.05014383108797446
0.07952929561683696,-0.05576618335124555
0.1165762505126719,-0.04238941588943886
0.11462325448681387,-0.04310064970596013
0.11271306926839479,-0.04382514887516137
0.10692440756197322,-0.04592875859192821
0.10876917278890869,-0.045247834452507976
0.12220620705563125,-0.040521894137747774
0.12051833016976446,-0.04106612115647243
0.14198228328959264,-0.03319032628752574
0.1400082814494582,-0.03395432624724904
0.18891799940021037,-0.01629607602230395
0.19086437175877644,-0.015566639604426433
0.18714336411009724,-0.016954528956232128
0.19669407180619272,-0.013352451271404664
0.19290296890300102,-0.014800307304588133
0.16934605880343467,-0.02329304737831081
0.16730830355395826,-0.02408754329791303
0.16674051040965,-0.024316496227876266
0.1850215506422646,-0.017744769726876677
0.1830336320232333,-0.018486590022658553
0.1791769545106215,-0.019918021903099235
0.17725544209000227,-0.020636836646553674
0.3038026450531031,0.02593782078236588
-0.3574210086051773,0.007480598645375323
-0.3554678764667051,0.00757619937809068
-0.353514743337758,0.007685075008247517
