"Plane Section: Position[X] (m)","Plane Section: Position[Y] (m)"
3.5,0.008240173708395162
3.2700000000000005,0.008316417184435435
3.0399999999999996,0.00865311107668465
2.8100000000000005,0.009178208141699059
2.58,0.009996367603864896
2.3500000000000005,0.011316663098942538
2.267148444634186,0.011999999999999768
2.12,0.013210132018275996
1.8900000000000003,0.01485636956085511
1.6600000000000004,0.018149173693576288
1.5628963506146003,0.019999999999999903
1.4300000000000002,0.022337412565259812
1.2000000000000004,0.02396519674000517
1.1760000000000004,0.02485800181600395
1.1520000000000004,0.027299034860517605
1.1476186742198626,0.02799999999999994
1.1280000000000006,0.030866683416773625
1.1040000000000003,0.03457430836466349
1.0964881722247015,0.03599999999999953
1.08,0.03892220523361551
1.0560000000000003,0.04220804265779489
1.0320000000000005,0.04399783509892213
1.0319640655491376,0.04399999999999914
1.008000000000001,0.045496373494388634
0.9840000000000009,0.04747228482488195
0.9600000000000006,0.049219752372986585
0.944267997607747,0.051999999999998735
0.9360000000000005,0.05590256154676815
0.9268533799415439,0.05999999999999828
0.9120000000000005,0.06373447407108919
0.8880000000000006,0.06540189899647592
0.60080699724918,-0.019999999999997978
0.6000000000000005,-0.020239874422147662
0.6298706290598803,-0.011999999999998763
0.6240000000000001,-0.013746143263251711
0.6573885307248302,-0.003999999999999074
0.6480000000000006,-0.006875804565055872
0.6828527863390144,0.004000000000000269
0.6720000000000006,4.398628830819272E-4
0.7056130351539288,0.011999999999999818
0.6960000000000003,0.008604375640121623
0.7292233202176552,0.019999999999999497
0.7200000000000002,0.01694737912709819
0.747923127471924,0.02799999999999911
0.7440000000000009,0.02632067971639961
0.8640000000000008,0.06750201709428796
0.5300849382318343,-0.03599999999999639
0.5279999999999998,-0.03643127671600718
0.5693156885657797,-0.027999999999997402
0.552,-0.031924975165722645
0.5760000000000003,-0.026328792839957614
0.7625517372767111,0.03599999999999866
0.7805309196416155,0.04399999999999825
0.7680000000000009,0.038265691773968255
0.7999627800815994,0.051999999999997944
0.7920000000000007,0.04886412757826381
0.8206621966653304,0.0599999999999978
0.8160000000000003,0.05859937782841279
0.8400000000000005,0.06545134742238673
0.5040000000000001,-0.03999991744170284
0.4734388907407191,-0.04399999999999553
0.4560000000000003,-0.04567922642327538
0.4800000000000004,-0.04339380571212552
-0.4669018511781984,-0.04399999999999696
-0.45600000000000007,-0.04535505199578164
-0.4800000000000002,-0.04247670921315157
-0.5040000000000002,-0.03867170598589162
-0.5194807987087595,-0.03599999999999799
-0.528,-0.03442269352647738
-0.5519999999999998,-0.02940432482321844
-0.5576500096865133,-0.027999999999998734
-0.5759999999999997,-0.023803616203751585
-0.5923509151766366,-0.019999999999999282
-0.5999999999999999,-0.018102842623192998
-0.6240000000000001,-0.01309509017145845
-0.6288635501937204,-0.011999999999999934
-0.6479999999999999,-0.008061515255258223
-0.6676091779896243,-0.004000000000000283
-0.6719999999999999,-0.0029911292020265105
-0.6960000000000002,0.0021936243332988767
-0.70231407304054,0.003999999999999233
-0.7200000000000002,0.009162848732393272
-0.7284313983648906,0.011999999999998871
-0.744,0.01884592177206938
-0.7466318503147984,0.019999999999998592
-0.7610339111620654,0.027999999999997978
-0.768,0.03235465948108841
-0.7736120050972652,0.0359999999999978
-0.7847893767505262,0.04399999999999739
-0.7919999999999999,0.049731231586193
-0.7948194533638442,0.05199999999999723
-0.8055901222252471,0.059999999999996834
-0.8159999999999998,0.06436990334265913
-0.8292426422507122,0.06799999999999673
-0.8400000000000001,0.07040550262047744
-0.9226437799650736,0.051999999999998034
-0.936,0.049706245782238825
-0.9106392880477661,0.059999999999997757
-0.9119999999999999,0.058579659511896254
-0.864,0.07123391277583194
-0.96,0.04884174695621092
-0.9014197773253554,0.0679999999999975
-0.8879999999999999,0.06993896556875026
-0.984,0.04852317476428883
-1.008,0.04783038295149861
-1.0498922965633861,0.04399999999999925
-1.056,0.043183381585970834
-1.032,0.046422212186552764
-1.0924730566905856,0.035999999999999616
-1.104,0.03327893984472459
-1.08,0.03885821305350662
-1.1333544652716505,0.02799999999999993
-1.1520000000000001,0.02517882373293503
-1.1280000000000001,0.028852382306526505
-1.1760000000000002,0.022073918376142643
-1.2000000000000002,0.022221358691684085
-1.6052079559348231,0.020000000000000177
-1.66,0.01902644496131385
-1.4299999999999997,0.022760247276010323
-1.89,0.015472621451134405
-2.2468941057741216,0.012000000000000205
-2.35,0.010989408875167864
-2.1199999999999997,0.013267090958883388
-2.58,0.010009439606399884
-2.8100000000000005,0.009404919668762831
-3.0400000000000005,0.008673075680023332
-3.27,0.00820448313972924
-3.5,0.00811650930938745
-0.25789403520775894,-0.1481393606601845
-0.26180028513305886,-0.14814020683284546
-0.2539877852245731,-0.14813898337516632
-0.26143366710213833,-0.14812887950680362
-0.26180028646536635,-0.14812941469272453
-0.2657065351964055,-0.14813993394578412
-0.2500815351566938,-0.14813929212140414
-0.25789403718843495,-0.1481233165286745
-0.26570653614919026,-0.14813221607809576
-0.2696127853744605,-0.14813870577992208
-0.24226903514609366,-0.14813889659211366
-0.2539877873751638,-0.14812156284851624
-0.23445653524582064,-0.1481376071793058
-0.26150258419302075,-0.1480999193086478
-0.2618002899735745,-0.1481009969994081
-0.26961278620676415,-0.1481319639283345
-0.27195870541431966,-0.1481379038274105
-0.2500815371825456,-0.1481228820319049
-0.21883153528046756,-0.1481363628217757
-0.22664403530677896,-0.14813663158915646
-0.2578940419111223,-0.14808506113708486
-0.26570653894505236,-0.1481095686340026
-0.270855751994848,-0.14813004267781105
-0.2735190358660539,-0.1481346957781492
-0.24226903726824522,-0.14812170643192038
-0.2539877925131807,-0.14807994315739278
-0.20320653553966295,-0.14813329966205555
-0.2110190353257373,-0.14813551435853123
-0.23445653770600478,-0.1481176788393257
-0.19070809868802707,-0.14812787331387614
-0.19539403585887155,-0.14813023224602878
-0.26961278949481193,-0.14810532996463482
-0.273519036782482,-0.14812727345647583
-0.2774252849560242,-0.14813604676329184
-0.2500815419681715,-0.14808411680840516
-0.21883153769564945,-0.14811679902753844
-0.22664403787980944,-0.14811578915576917
-0.18758153639016084,-0.14812544665145042
-0.27937840894149996,-0.14813687337460957
-0.26373250531409353,-0.1480350150071974
-0.26570654515181624,-0.14805929172374227
-0.272469550921989,-0.14810127319771657
-0.2774252868472173,-0.14812077810541918
-0.2422690424861782,-0.1480794393744631
-0.204930457743089,-0.14811031661546
-0.2110190377597762,-0.14811579781187661
-0.23656365876118612,-0.14807076872411878
-0.1797690370398319,-0.1481197023919143
-0.1783426806997823,-0.14811862179553867
-0.2784026119433448,-0.14811938686695678
-0.28133152924135557,-0.14813739808738008
-0.26528958204499226,-0.1479765456009292
-0.2696127954385027,-0.1480571846592779
-0.2735190402706656,-0.14809902195087982
-0.25498926347229656,-0.14788728156590242
-0.2539878119994409,-0.14792209774631926
-0.20320653926389737,-0.14810313208837325
-0.2240287035651338,-0.1480692212644414
-0.21883154261278442,-0.14807696853494734
-0.23445654411734138,-0.14806574480541043
-0.1984014658276605,-0.1480921293776281
-0.17195653786546294,-0.14811253263577323
-0.2793784117566145,-0.148114231377839
-0.2832846492731017,-0.14813506051114297
-0.2657065583570163,-0.14795232513200612
-0.2735190474403282,-0.14804095377086032
-0.27742529005661837,-0.14809486668156088
-0.25008155954959965,-0.1479417011893914
-0.2539878197082073,-0.1478596540911177
-0.2032065416336362,-0.1480839363872014
-0.21101904144268896,-0.14808596494912657
-0.2266440443546432,-0.1480633407728595
-0.1563315387107158,-0.14810472215692555
-0.1641440384057084,-0.14810767460636726
-0.2793784140583532,-0.1480957182934368
-0.2813315326423372,-0.1481105495658666
-0.28406199858907727,-0.14813167300945537
-0.26487805950230536,-0.1477565136860571
-0.2657065703789714,-0.14785494318219333
-0.2659951627045284,-0.14788864026124712
-0.2747277207389513,-0.14803637238361123
-0.24399767641614153,-0.14788592463741504
-0.25102353005283584,-0.14775480332288568
-0.14851903879933587,-0.14810352250216072
-0.14070653880984435,-0.14810295555353817
-0.1250815384899462,-0.14810458302037047
-0.1328940387565738,-0.14810290530870807
-0.10528205602088542,-0.14810960234800197
-0.1016440377097747,-0.14810945756622873
-0.28133153464382754,-0.14809474444193402
-0.28328465233847966,-0.1481113622864585
-0.28377939619168346,-0.14812005063931977
-0.2640771879202244,-0.1475584318166183
-0.27742529885468653,-0.1480238351789986
-0.24226907229766192,-0.14783795611068085
-0.2500815880590205,-0.14771076508694672
-0.23967319737493603,-0.14775340210669935
-0.10945653775484045,-0.14810957431620836
-0.11726903801427753,-0.14810795463770093
-0.09383153767037981,-0.1481092948428932
-0.27937842249684725,-0.1480278483222219
-0.28328465525653457,-0.1480888055610634
-0.26425705568474356,-0.14681601776932898
-0.2638576421659473,-0.14726143021245705
-0.2657067642145839,-0.14628480863950352
-0.2456496129239893,-0.14755615690387552
-0.23445659737903832,-0.147634306762076
-0.08601903765865704,-0.1481089080119803
-0.07820653767077926,-0.148108327999329
-0.0641669182557158,-0.14810452662041573
-0.07039403775678185,-0.14810714953788104
-0.2813315423215219,-0.14803413699230694
-0.28371671354439276,-0.14807658984193342
-0.2662125114033358,-0.14614806654635146
-0.26961325564316196,-0.1443293951753975
-0.2444699847814796,-0.14725903677605376
-0.22750455400094943,-0.14755391686818675
-0.06258153814264636,-0.14810354198936065
0.05254969004463117,-0.14807853029149476
0.054605959811959634,-0.1480797466540019
0.06241846007727295,-0.14808141399009864
-0.28328466222386417,-0.1480349317620454
-0.2834180935562993,-0.14803744522362788
-0.27351953571644744,-0.14408603212817958
-0.2440519492731435,-0.14681352341757375
-0.2188316324673266,-0.14734911587013105
-0.22664410866087017,-0.1475424382398346
-0.15633156416178273,-0.14789855976864905
-0.1641440660338973,-0.14788387678285633
-0.16510651387166703,-0.14787618540092645
-0.054769038900118396,-0.14809692454366474
-0.04695653941423155,-0.14809227823393428
-0.04434034030278744,-0.1480904915161567
0.038980958179461615,-0.14806748647645052
0.03116845820382861,-0.14806816566583753
0.046793458914491805,-0.14807295865021514
0.021152023740998487,-0.1480650251584982
0.02335595807083131,-0.1480675701371745
0.07023096026021582,-0.14808241408858247
0.07804346032670212,-0.1480824708289548
0.09366845972479564,-0.1480766315325018
0.0858559602492279,-0.14808136145538672
-0.27742576787060863,-0.14423083036022086
-0.2434498112196617,-0.1461452564556759
-0.21616831290565025,-0.14725554289072812
-0.14501853884018587,-0.1478737055092233
-0.14851906425714992,-0.14789730545448992
-0.1588309463145003,-0.14774342200530363
-0.16414406866293227,-0.14786258069624736
-0.023519041213272134,-0.14807625997866383
-0.03133154097985249,-0.1480786325024972
-0.01669199479682231,-0.14806969706133713
-0.039144040209454604,-0.14808535485136537
-0.007894045038952979,-0.14804430703287555
-0.015706542174374772,-0.14806799288637457
-0.006605716432384988,-0.14804238005914191
0.01554345605783985,-0.14805174603311205
0.09747253914966575,-0.148072984496033
-0.2793788280646241,-0.14475590165092367
-0.24302871801006748,-0.14196862598545762
-0.20805371375469733,-0.14680907937951723
-0.21101917569188589,-0.14699850032437609
-0.1407065782230082,-0.1477836953852217
-0.1563315887429365,-0.147699443965105
-0.1395902971059714,-0.14774104671729138
0.009957523107030767,-0.1480403353015099
-8.154780873486657E-5,-0.14802138905785564
0.1014809587052385,-0.14806789097238068
0.10929345829254486,-0.1480640662184204
-0.2813318892126357,-0.1452732449700364
-0.24226996728527886,-0.1405882488530778
-0.20320676819073824,-0.146248745990862
-0.23737550229857543,-0.1341554280277209
-0.20226135720381874,-0.14614017167708734
-0.14891720911740194,-0.14754421513845567
-0.13420019048722817,-0.1475423982996607
0.007730953367813934,-0.14803043770461918
0.11710595817816882,-0.14806265789062237
0.1249184580655482,-0.1480612638795672
-0.2832849867960341,-0.14549544941772888
-0.30171988845327724,-0.14937767862831103
-0.3009705123793337,-0.14965094780774527
-0.23445851217267605,-0.13212382025790279
-0.19796500197967423,-0.14196306279975715
-0.14151363472955594,-0.14724632665481122
-0.1485191093869563,-0.14753173853034307
-0.1250816408478853,-0.1472754485340235
-0.132894112403114,-0.14750634302728446
0.1327309579717335,-0.1480600221215982
0.14054345792384593,-0.14805915242916579
-0.30239975474165026,-0.14912857797502188
-0.28523807842446375,-0.14576589107194957
-0.304956386208878,-0.1481524476882813
-0.30502595831621393,-0.14815285823685387
-0.30005416865888046,-0.1499856921441617
0.14835595824406983,-0.14806126457436597
0.1561684586135636,-0.1480637757376244
-0.20320818327295595,-0.13478609373835315
-0.2048846726557955,-0.1341514169843637
-0.21883372077731644,-0.13043308728719688
-0.22664626219524897,-0.13009806968642515
-0.14070665564097096,-0.14715658328645437
-0.12422856295314479,-0.14724419278586443
-0.13757732916511092,-0.14680037896043013
-0.29447369702227444,-0.15201745981925685
-0.29625584804833394,-0.15136894499267145
-0.2923668737216374,-0.1527839486891423
-0.2903605715343925,-0.15351396692787586
-0.28846092029791776,-0.15420517279459617
-0.2865077157378383,-0.1549158203464077
-0.28456640467506783,-0.1556221796362468
-0.2826013165687217,-0.15633716815505336
-0.2806480994911502,-0.1570477944868483
-0.2871911722035727,-0.14601891156528288
-0.3048469968873869,-0.1481513237880056
-0.3046636662643157,-0.14814919751321798
-0.30480758839377586,-0.14815035601576101
-0.29815520166398635,-0.15067756644062275
0.1639809585861053,-0.1480630715727786
0.1717934583406596,-0.14806060150037392
-0.2110209650860962,-0.13250379228201856
-0.12009907633429186,-0.1467982212429838
-0.12508177045693003,-0.1462255707358172
-0.1328942581996832,-0.14632534070766354
-0.27877641047213647,-0.15772876062358865
-0.28914424302194164,-0.14628854332647553
-0.28767896275336896,-0.14615071661309725
-0.3045208300793529,-0.148145942762078
0.1796059571876126,-0.14805077960225482
0.18298809690816947,-0.14804504624402492
-0.261116011276831,-0.1641542847278745
-0.25916281244438166,-0.1648649612070605
-0.2572940498851893,-0.1655448781420965
-0.276741666459438,-0.15846905023832267
-0.2747884449463767,-0.159179664379005
-0.2729955381589255,-0.15983202341815594
-0.27088204268992805,-0.1606010047173278
-0.26887787789771345,-0.16133016163779895
-0.2650224049137947,-0.16273292069863982
-0.26308377356053025,-0.16343829670903326
-0.29109697543696217,-0.14673684457155262
-0.3043778434319717,-0.14814170614927796
0.15537810480130615,-0.14792461352193204
0.1561684417008711,-0.14792677711506985
0.17045369881950084,-0.14798141404625403
0.17179344910703293,-0.14798580594807245
0.1921347150874521,-0.1480439170798095
0.19523095689082234,-0.14804741182132425
0.18741845485153064,-0.14803137468336774
0.2074887805920252,-0.14805940282023647
0.21085595856537026,-0.1480600126910369
0.20304345823973727,-0.14805785674273786
0.21276759351492522,-0.14805875114258585
0.13221959268785613,-0.14783948003149486
0.1327309311336671,-0.14784262456172825
0.14054343502817784,-0.147873689653024
0.11888848654604081,-0.14770913711017628
0.12491842373127816,-0.14778314448929314
-0.2552563847534368,-0.16628623163783934
-0.2533031686008764,-0.16699686051212437
-0.2515137867023611,-0.16764805597282031
-0.2669756123874245,-0.16202226797006294
-0.291323568025606,-0.14681935917229771
-0.29270967122462993,-0.14726499204023727
-0.2930481482918757,-0.14733360654981884
-0.2944041528309925,-0.14756217572751926
-0.29499423252022683,-0.14760861483593196
-0.30419807299925394,-0.1481342530368237
0.1483559375370512,-0.14789353059257904
0.1639809445917014,-0.14794971209234958
0.17471941842244385,-0.1479808874365466
0.17179344511210784,-0.14795344568296281
0.17005876608169995,-0.14792280117150727
0.21866845796734669,-0.1480546866804727
0.11710591000034336,-0.1476724009455996
0.11134409029130855,-0.1475120854770086
0.10858498806937421,-0.1472154515915643
0.10929336361661643,-0.14729715865977194
-0.23581180302209298,-0.1733612649426172
-0.23767760133397992,-0.1726823366407978
-0.2473951792709311,-0.1691464636701993
-0.24939679594868935,-0.1684182822185471
-0.2396307917291834,-0.17197163697162132
-0.29692095772300703,-0.1476669967099713
-0.3036366916272894,-0.1480961756189521
-0.30392290426764873,-0.14811421192215915
-0.3040304548097218,-0.1481225975245378
0.14437667577472382,-0.1477059905536489
0.1483559206889481,-0.14775705516406093
0.15859954232751786,-0.14783622338575877
0.16398093654918067,-0.14788456490906254
0.15616842815621243,-0.14781706071514258
0.226480957420651,-0.14804977642021339
0.2342934574907106,-0.14804986207781273
-0.31299941761774747,-0.0560397633226686
-0.31259289396853246,-0.0561328675985287
-0.007894705678873999,-0.1426928966376536
-0.01570707728231851,-0.1437334346462259
-0.004970124158639212,-0.1419392372824758
0.038980414856090245,-0.14366638044998037
0.031167950996300507,-0.1439596103819512
0.046792720064024025,-0.1420880159467495
0.023355436259146142,-0.1438407161620015
0.015542929278991317,-0.14378465632742146
0.04721531625432367,-0.14193279490884445
0.13443681973345342,-0.1475092346437102
0.14054340810130722,-0.14765557274187574
0.10862129617662182,-0.1467699853579247
-0.23181801347476239,-0.17481438982039788
-0.2337712255273612,-0.17410374967726047
-0.23003210358922885,-0.1754641606644405
-0.22800455525473565,-0.17620190493273288
-0.22591256569489485,-0.17696298778909617
-0.22785333153575762,-0.17625692472416585
-0.24549036901445886,-0.1698395547291993
-0.24353718552679487,-0.17055027338401108
-0.24160125181924771,-0.17125469372652918
-0.2988053037070447,-0.1477016219000609
-0.29969488314975856,-0.1477613334754506
-0.30068057398364745,-0.14780771248061342
-0.30153565370706814,-0.14791266038688114
-0.30228455443653074,-0.14797469525489743
-0.30279479342613447,-0.148027914695227
0.24210595785018285,-0.14805229237788725
0.24991845797689702,-0.14805283687909132
-0.33603086792941506,-0.052295067224297664
-0.3282182708472896,-0.053080983691679184
-0.3047802877334449,-0.056992926672585514
-0.29696753683485244,-0.05902480952067318
-0.320405605107999,-0.05442304733734438
-0.28134228900902775,-0.06103132021062886
-0.2891548134624202,-0.06083372123456708
-0.25706709337352457,-0.0638453584498887
-0.2500915626800747,-0.06691290670499395
-0.2344659152559906,-0.07215630127176012
-0.23591341151661002,-0.07165524705450152
-0.10946006933743535,-0.11950254163291753
-0.11292343890099096,-0.11851506410833534
-0.125085808867151,-0.11351306010623775
-0.1328986038692923,-0.11112392345229467
-0.13379115745024045,-0.1107051402011096
-0.09383420907635513,-0.12646998838401652
-0.0941685859472561,-0.12632524885210533
-0.10164712413381718,-0.12310836214465978
-0.047154695135837754,-0.14194444503325193
-0.046957289656966515,-0.14201505424858613
-0.06258308614305694,-0.1355642066820934
-0.07039559812284557,-0.13546764818493584
-0.07536660828853227,-0.13413542777824905
-0.02351958645253882,-0.1436596345420265
-0.0313320662682082,-0.14382361629960194
-0.039144599417516225,-0.143555577372722
0.0077302460436634475,-0.1423008690070427
0.00607229476416779,-0.14193787407871855
-8.260113184297547E-5,-0.13948910989743765
0.05460466341616666,-0.13757849520949897
0.06241689691968095,-0.13541930029951194
0.12884023407167794,-0.1472129510500005
0.13273088012800546,-0.1474294611785612
0.10929328641647583,-0.14667181099080723
-0.224005158792564,-0.1776569326049793
-0.22205195416756063,-0.17836759316310855
-0.22011870826003688,-0.1790710095545039
-0.22791161254864645,-0.17623573381512989
-0.34384344753079876,-0.05165075024502852
0.25382470788480543,-0.1480518504620168
-0.2657172193797424,-0.06159437784839947
