"Plane Section: Position[X] (m)","Plane Section: Position[Y] (m)"
3.5,9.274009884065052E-5
3.2700000000000005,9.42671437893528E-5
3.04,9.738551968775677E-5
2.8100000000000005,1.0208987477774675E-4
2.58,1.093823362043584E-4
2.35,1.2309007371048993E-4
2.1200000000000006,1.410451269929522E-4
1.8900000000000001,1.632875217539505E-4
1.6600000000000004,1.9763841972288772E-4
1.4300000000000002,2.471804069483774E-4
1.2000000000000004,2.9608059478160255E-4
1.1760000000000002,3.201122795888719E-4
1.1520000000000001,3.2890966071774674E-4
1.1280000000000001,3.424315979861282E-4
1.104,3.559189777336897E-4
1.0800000000000005,3.6897743248915467E-4
1.056,3.822725177779178E-4
1.032,3.9417207364106865E-4
1.008,4.091738697073002E-4
0.9840000000000001,4.258165845628262E-4
0.96,4.3984013077922517E-4
0.9359999999999999,4.5629129494967314E-4
0.9120000000000001,4.7716565033521254E-4
0.888,4.972404955390504E-4
0.8640000000000003,5.171289304888304E-4
0.8400000000000003,5.412091291730327E-4
0.8160000000000001,5.669286199913667E-4
0.7920000000000005,5.960836615729301E-4
0.7680000000000007,6.267425293786927E-4
0.7440000000000007,6.604001173258116E-4
0.7200000000000006,6.981356007179066E-4
0.6960000000000006,7.432618064979039E-4
0.6720000000000006,7.958450916555178E-4
0.6480000000000006,8.589891850457574E-4
0.6240000000000004,9.369221364721245E-4
0.6000000000000004,0.0010415811032843019
0.5760000000000003,0.0012171159564960906
0.5520000000000004,0.0015531704478186632
0.5280000000000002,0.0021420787655644525
0.5040000000000002,0.0027072374063918953
0.4800000000000003,0.003507897514710405
0.4560000000000003,0.0020440428316281204
-0.48000000000000015,0.0035231126862583797
-0.4559999999999999,0.002094056823950903
-0.5040000000000002,0.00275402879043031
-0.528,0.002178381165385171
-0.5519999999999998,0.0015833238327881097
-0.5759999999999998,0.0012365155788630865
-0.6,0.0010483298846722978
-0.624,9.425350614597358E-4
-0.6479999999999999,8.622660501499352E-4
-0.6719999999999999,7.981629563487636E-4
-0.6960000000000002,7.440143565685682E-4
-0.72,6.989613507242677E-4
-0.7439999999999999,6.607846764605042E-4
-0.768,6.254896935863745E-4
-0.7919999999999998,5.950942556584982E-4
-0.816,5.663638167100308E-4
-0.84,5.406475071948952E-4
-0.864,5.172308628092706E-4
-0.888,4.95876224006232E-4
-0.9119999999999999,4.753312905818474E-4
-0.936,4.567365309316562E-4
-0.96,4.395470647504512E-4
-0.9839999999999999,4.2380098257251955E-4
-1.008,4.087351627843431E-4
-1.032,3.950449833273654E-4
-1.056,3.8143853582012395E-4
-1.0799999999999998,3.66851117912246E-4
-1.104,3.5332172097714233E-4
-1.1280000000000001,3.3956677334721864E-4
-1.1520000000000001,3.350456106579647E-4
-1.1760000000000002,3.246908408528123E-4
-1.2000000000000002,2.933419138841973E-4
-1.4299999999999997,2.4602799337603443E-4
-1.66,1.9715136715180365E-4
-1.89,1.639341851575461E-4
-2.12,1.4055967562916997E-4
-2.35,1.234896325024514E-4
-2.58,1.0947884896564831E-4
-2.81,1.0138125667770047E-4
-3.04,9.770926967597488E-5
-3.27,9.457361169191178E-5
-3.5,9.29866388147797E-5
-0.2043596264910582,0.01284897021812046
-0.20635609954852407,0.01357529577247963
-0.2142600503077396,0.016448611210469276
-0.21612326329986126,0.017125465043792358
-0.22393788141332535,0.019963163217592755
-0.22504711449577897,0.020365871709149573
-0.22198421731343015,0.01925376497086178
-0.22005049330829812,0.018551662061679706
-0.2180768704529849,0.017835019745484758
-0.23175594176675207,0.022791404217452318
-0.232642706537742,0.023112032713430722
-0.22996916775575812,0.022144007413819642
-0.22784657376025427,0.02137821186751651
-0.2258460825075366,0.020654926142380466
-0.23575554780439056,0.024228549018980243
-0.23762477019609501,0.02489807005727682
-0.2377033840970479,0.024926282416929943
-0.18291440712247983,0.0050426613341516355
-0.1848717674477073,0.005755504906375032
-0.18877781329050589,0.007177824533979022
-0.19073086427972324,0.007888907234548107
-0.1869994016510485,0.0065297496418757275
-0.20049647411376745,0.01144334572193409
-0.20244965687036723,0.012154066406181743
-0.19856595882257905,0.010740837385607098
-0.19277722793315782,0.00863389621382295
-0.1946370282151115,0.009310902415801023
-0.20705365580854523,0.01382891017941796
-0.2084805845147192,0.014346980827220437
-0.21026276333949742,0.014995917655722146
-0.21221622574970234,0.015705870022586454
-0.2337115761332532,0.02349538937438618
-0.2395851739080775,0.025588951964528223
-0.18287811606040794,0.005029439037390575
-0.19659015018511886,0.010021790104485012
-0.2413127290237684,0.026198400771092267
-0.17708555577385604,0.0029186844184094455
-0.17901305049052313,0.0036210589140891506
-0.1731544497706462,0.0014862935726525205
-0.17510733091574238,0.0021978429011681564
-0.17129780204050826,8.09897690970907E-4
-0.1809659121261965,0.00433266184259247
-0.24351656425648766,0.02694164036352178
-0.24367331212292007,0.026995183583225398
-0.24156419758209474,0.02628236775287899
-0.1692486086170157,6.341158419245477E-5
-0.16719409716923728,-6.850361976789175E-4
-0.1613988416772017,-0.0027962229707310738
-0.16338983567952572,-0.002070880608392866
-0.23182403726965436,0.022604319347780042
-0.23378089406347172,0.023304946020741617
-0.23003294169082694,0.02196879557423778
-0.2279131917426927,0.02119518632205718
-0.22591260734956986,0.020472156489891237
-0.23445799726393263,0.02354733610718207
-0.23583272820223622,0.024016504404335025
-0.23770694565715597,0.02467230205840388
-0.24407144791107832,0.02704645783818599
-0.2396650045714661,0.02536962603815452
-0.15167241413097382,-0.006339806566670437
-0.1498187924120878,-0.007015194838955572
-0.15948402006376827,-0.003493832759334612
-0.15753111063534475,-0.00420530438254159
-0.1556062912427542,-0.004906573512142158
-0.1654305524981924,-0.0013275115934284739
-0.21433754895465476,0.016235692241672105
-0.2161960115701428,0.016925597209881293
-0.22400412462693048,0.019781167308086003
-0.22205056891807123,0.019071471268963074
-0.22011775377933837,0.018366871349780822
-0.21814614626123166,0.01764469211730591
-0.2359021450380123,0.023825789318601333
-0.23776571480214165,0.024510840326549
-0.24750510565384112,0.027986784876369217
-0.2486743139127469,0.028370667782257657
-0.24355941194058978,0.02682392108611912
-0.2416359641846328,0.02608519694261762
-0.23971562558851606,0.02523055038743452
-0.1536253090273041,-0.005628295018145494
-0.14803281983118596,-0.007665935177888664
-0.212878495051947,0.015692788566894086
-0.2319090507679778,0.022370754155129374
-0.2338625202304005,0.023080687146801202
-0.2301297980273992,0.021702693492135626
-0.22799938550707943,0.020958378478816736
-0.22599769203516273,0.02023839571808509
-0.24558312476070368,0.027340868214437222
-0.24958695413859777,0.028494538384437364
-0.2436207541586365,0.026655390120354276
-0.24168329778688125,0.025955153100801792
-0.24980797863708634,0.028467266345024715
-0.14571502551400764,-0.00851149288884611
-0.14776668530604012,-0.007762997165821608
-0.14395161548312813,-0.00915505610033492
-0.14190897920413226,-0.009900220371275617
-0.13992077087741264,-0.010625178945554753
-0.13019272670438647,-0.014172358161979152
-0.12834267987544637,-0.01484819539388018
-0.20859770903527594,0.014025194149254957
-0.21038192760605995,0.014668527000994675
-0.21231118347773367,0.01544498415765385
-0.21439603955521333,0.016074995779852025
-0.21626186286483517,0.016744678054280572
-0.22408743733451564,0.01955227485005306
-0.22213115184635435,0.018850078577921286
-0.22019464070077327,0.018155633029144157
-0.21821821543083683,0.01744669003745999
-0.23799296285928412,0.023886501400463618
-0.2377156574175468,0.023613282412445057
-0.23737302147507058,0.023467115137173422
-0.24763001761771752,0.027643603058389754
-0.24962267626051438,0.028396395801765287
-0.2399200479183729,0.024668922624823945
-0.12628772062007812,-0.015597534411135882
-0.1380035282703648,-0.011324174445697372
-0.136050787067704,-0.012036108250597425
-0.13412890819323783,-0.012736976982443762
-0.13214540544964112,-0.01346025276225694
-0.207717045152491,0.013673654457597058
-0.2086128999780169,0.013983458712674496
-0.21039264050931958,0.014639094483065183
-0.21234936533159698,0.01534008373325882
-0.23619993300424796,0.023007649786940285
-0.2457346910234132,0.02692445665571866
-0.24379321641793902,0.02618156912000221
-0.24187183232250625,0.025437175297242813
-0.12471205781196237,-0.016172766497556047
-0.2322586629207242,0.021410233397601702
-0.23418373220760375,0.022198192733362286
-0.23049256646062993,0.020706027307754324
-0.22842844261583262,0.01977959148333915
-0.22645798846895604,0.018973782129004035
-0.12423888098104255,-0.016345983737328266
-0.12043197300099395,-0.017740138331716088
-0.11843471656090024,-0.018470196269919772
-0.22524702322785645,0.018342393240938677
-0.11457580117578048,-0.01988157679284197
-0.1165278153873667,-0.019167645660300936
-0.11265747779706839,-0.02058371042835562
-0.11074199914214204,-0.02128535972907605
-0.12247623150197595,-0.016992363073220405
-0.10687727572113145,-0.022710562763413093
-0.1087225875630287,-0.022031142615837624
-0.2246119525590525,0.01774199602455483
-0.22265883734142194,0.016789782975826728
-0.22233146213043606,0.016627545308653867
-0.11067235755286077,-0.02131104573200672
-0.09896401989417386,-0.025604928673914742
-0.09698175164611116,-0.02633009331080364
-0.1048199773906881,-0.02346290136837014
-0.10277403977546165,-0.02421152129199591
-0.10101072847058547,-0.024856817773323533
-0.22207248891141107,0.014660315370392245
-0.09506049948753216,-0.027034186658290976
-0.094872386065413,-0.027103228908941773
-0.07548803203958226,-0.03411601591587271
-0.07631847074233222,-0.033814899922574984
-0.06390729818253629,-0.03832751658837864
-0.06574714799989834,-0.03765210979098077
-0.22127804065799805,0.01270718220859956
-0.08129225692530534,-0.03203050546050637
-0.08218975315780161,-0.031719477334426094
-0.09311006326366417,-0.02775245313772883
-0.073562739346605,-0.03481708546797821
-0.07747039999877789,-0.03339920235070547
-0.07160904347500627,-0.03552639642546102
-0.06969375459552343,-0.03621978455197047
-0.06770085750054894,-0.03694283627780748
-0.061843729787989396,-0.0390816485440765
-0.22070576513818937,0.011650604618834243
-0.22025954788286503,0.0107540467451058
-0.09119510369494202,-0.028455300076447892
-0.08725501030468957,-0.029896965560221048
-0.08920763741881031,-0.029184718309664757
-0.08541051969749999,-0.03056916077934351
-0.08334485459804467,-0.03130799379103532
-0.07952183519542999,-0.032657011284798546
-0.061048349354014084,-0.03937294724045496
-0.21950991306469386,0.008800914043700418
-0.059809706076046985,-0.039847371389645336
-0.2193738723877065,0.006847787645996956
-0.05845513819853762,-0.04035844683968019
-0.2200714732327907,0.004894669812633159
-0.05805130033541006,-0.04050764344679977
-0.05600151247402276,-0.041261425482883585
-0.05402566419232411,-0.04198806006225063
-0.052101417635622545,-0.042700094837475014
-0.05015474875546928,-0.043428711677469825
-0.04940034853090898,-0.043716652738869495
-0.044303080742232694,-0.04558252386434253
-0.04246981606443362,-0.0462664246669289
0.005272807825949168,-0.0596220293559836
0.00636153696894547,-0.05922939222656797
-0.0031208702704173725,-0.06041125737324582
-0.001595268719047189,-0.060958977526039085
-3.3919998989429587E-6,-0.06153575570865268
-0.2218392327228106,0.0029415629734450433
-0.2207058414672437,0.004220834240012936
-0.04825102784200706,-0.044145301034468495
-0.04625729792930516,-0.044874645163514915
-0.034561433695965454,-0.04920279746325984
-0.03418785215904747,-0.049347365548773586
-0.0404097498030626,-0.04703977628465578
-0.03837352667738783,-0.04779162934756145
0.007153998650748254,-0.058946419416417775
0.008456339723892457,-0.058485467390612084
0.0033456777365875176,-0.06031991911513646
0.0015888076948218936,-0.06095819636723219
-0.004538420324027096,-0.05991379163618048
-0.00335370214354426,-0.06032888752197128
-0.006010104817843706,-0.059405870334761295
-0.0052890795943016855,-0.05965589948371376
0.06770723839646528,-0.03697901033658005
0.06575371312041739,-0.03768878991617948
0.06391419281981872,-0.03836510240731394
0.059806212522355545,-0.03985641658340302
0.06184943065542268,-0.039115954575013386
0.05804093338411673,-0.040497804676875256
0.05598957766918549,-0.041247279369042614
0.05401180520557404,-0.04196862755578268
0.05208454563196822,-0.04267238452937146
0.050261668530366885,-0.043339420858750755
0.08430523205948028,-0.030948973139727148
0.0833343772201103,-0.031297851980933045
0.08540422932434245,-0.030570523771960362
0.08724328603355587,-0.02988339851584789
0.0812880259214337,-0.03203752458285635
0.07549302327921881,-0.034148372225727065
0.07747223681048054,-0.033422891930172866
-0.22498432765475862,9.884702841832754E-4
-0.2246121222612151,0.0012234093258043192
-0.22265898474382648,0.0024418255290695992
-0.021435561841998168,-0.05389532805511315
-0.02097424444235057,-0.054045676522856786
-0.036609477487485255,-0.04843715963521887
-0.03260056370427044,-0.04996247788168501
0.009102458136429289,-0.05826105498613422
0.009986064534337223,-0.05795645585323188
0.01104681473453763,-0.05759889536372302
0.01166445542321399,-0.05738720850052023
-0.007180419056600742,-0.05900931465242019
-0.008119816544680039,-0.058679591274240134
0.04244353300585649,-0.04621286029980344
0.0442785191026115,-0.045533688268165305
0.0403774893482543,-0.046969789961389716
0.03833993776921657,-0.04771799361779644
0.020963139873705613,-0.054033813533664495
0.021744654755635445,-0.053780859435282755
0.016852100020476518,-0.05552031141290254
0.018886315246545365,-0.05477078182572394
0.07356793457848099,-0.034850002277882576
0.07161494082094925,-0.0355612422392328
0.0697005624251611,-0.036257131768999494
0.050132750540623404,-0.043386917904160695
0.04822226484430839,-0.044084921917034135
0.04622937398572165,-0.04481657161000264
0.08920898316595269,-0.029207061904531994
0.07952225846653532,-0.03267681732174997
0.19084867794064747,0.00754656735715868
0.18889723031019173,0.006831079310940416
0.18712112944773387,0.006176655364121363
0.1928935663193022,0.00829560975979559
0.19475206044495172,0.008976204716633913
0.18676444077386617,0.006045412714014369
0.216240019813548,0.016786029435688264
0.21437575344395177,0.016112069899003857
0.20859454755277118,0.014015220657390696
0.2103767412951345,0.014664116514474364
0.2044723014534066,0.012520749227203204
0.206469088894702,0.013246210972809081
0.20060923813666182,0.011114880056659105
0.2025622558846099,0.011826054102779787
0.19867921698677624,0.010411014042916115
0.2123309812971702,0.015371932337865738
0.23776985082815671,0.024480809079520254
0.239727926954713,0.025178084900874476
0.23589939753327294,0.02381467063874223
-0.2265652557910935,3.9313182237019756E-4
-0.23047151800682056,-7.959111766242649E-4
-0.22851838748373343,-2.583110247396637E-4
-0.018890438935718814,-0.05476346630920331
-0.022143976568024682,-0.053731117892534264
-0.016853088141191477,-0.05550437941150428
-0.030687211742617918,-0.05071254971057217
0.013032986808659764,-0.05691950065416103
0.015092113962465334,-0.05617771395846817
-0.015093814067805545,-0.05616376993090655
-0.013044300006143348,-0.05693217743412181
-0.011072815895733093,-0.05765297522037441
-0.009135316481016342,-0.05833626964347859
0.03657588904091228,-0.04836352536955484
0.03452695817312212,-0.04912672703872186
0.03441125325653985,-0.049170741978891534
0.022805700638409875,-0.053488321914239
0.0905857527071657,-0.028725549806515843
0.09120971346448932,-0.02851408709602824
0.09313625353826219,-0.027843058018629165
0.19670416231231777,0.009689895204308165
0.1849955777451845,0.005396688830541322
0.18300472823408456,0.004662924599541714
0.1772200695988188,0.0025304595414178174
0.1791448468380519,0.0032403005298906784
0.23189628046600524,0.02238717366947694
0.23385416913470092,0.02308496454350791
0.23010788368614385,0.02174423569476667
0.227980913432828,0.02099046458384178
0.22597714899937502,0.02027617240888483
0.2206433525333025,0.018375934005467606
0.22016979965779904,0.018205220433027147
0.21819484784475834,0.017492229610613193
0.2483107465000467,0.028235031658517255
0.24751113259355095,0.02795155433090137
0.24560127449478725,0.027272332529111924
0.24364342059263155,0.026574446131742504
0.2417029710623392,0.02588243328911452
-0.23123995160551536,-9.64590449347889E-4
-0.02236045092525265,-0.05379278508126726
-0.02972322138921965,-0.051112870129137705
0.032569966201362606,-0.04989706516541169
0.030649069736919856,-0.05062641101116224
0.030489994006304897,-0.05069155725853142
0.022841360530614783,-0.05348309148542017
0.023416390098391058,-0.05340651511277268
0.09721728612750094,-0.026405585440317722
0.09702700950419288,-0.02647308687544182
0.09509690336683727,-0.027152853611238148
0.12444185541290506,-0.016637428198613927
0.12639869261659112,-0.01592107812298868
0.13225800670658636,-0.013788272676418144
0.13030383895044004,-0.014496287000101095
0.128453075270168,-0.015170154775994711
0.12055300582967673,-0.018091325472524327
0.12259951963132434,-0.017349746589191403
0.11855610064706659,-0.018822348689457574
0.1615603115472775,-0.003258511643198927
0.1635470353784776,-0.0025214366691392563
0.16558406115097504,-0.0017679262299917994
0.17524461630319194,0.0018020029290244182
0.17329461045074387,0.001082553503811505
0.1714409866480933,3.9784914871968867E-4
0.16939500704584814,-3.574671774778632E-4
0.1673440504499625,-0.001115682184154696
0.18109512859472213,0.003958991890283165
0.2240652648745282,0.01959452900682458
0.22210716490819987,0.018897318686797154
0.2548134442127989,0.0302857119352791
0.25350564590890096,0.029863427290099262
0.2516941981107126,0.029272859341581307
0.24953965857931157,0.02860580076668076
0.23996585092851883,0.024524373282782824
0.23804337402268652,0.023729286283305454
0.23771876746608114,0.023589908602187352
-0.2343777734511147,-0.0013258320187701659
-0.23242464643204053,-0.001129307888188009
-0.23828402572890667,-0.001547529500316357
-0.2363308998044343,-0.0014575525256438908
-0.24023715144355007,-0.001617082007197669
-0.022941598892092234,-0.05373983221920235
-0.028768289654088026,-0.05151739779453529
-0.026899076074149205,-0.05232018458405054
-0.026058474623403417,-0.05265746139989512
-0.023287072551682296,-0.0536662015048228
0.028891688267987197,-0.051413733256708824
0.026888372677412748,-0.05230944817060691
0.02874609797088406,-0.05147508965293367
0.025494810783981397,-0.05286074434903346
0.024812474755240767,-0.0531090864147426
0.10492410593146502,-0.02376764516106694
0.10287487812736476,-0.024507225299940177
0.09974430554787062,-0.025626313869439976
0.09904276083372657,-0.025839918978589102
0.12435072385696797,-0.01667192040137011
0.13328550519139093,-0.01341870580687006
0.1343046806922102,-0.013238563923862206
0.13437960679235672,-0.013231186439070144
0.11469504726833345,-0.020227855322357588
0.11664873910711644,-0.01951853338472459
0.11277445834306925,-0.02092376444248062
0.10883138540873837,-0.022348714988702542
0.10698466038186132,-0.023024252757776024
0.1596500595751582,-0.0039686768569324625
0.1577022364159232,-0.004694123373955513
0.15578416627103095,-0.0054139365403752795
0.14013073305167384,-0.011220704036490621
0.14212148563252233,-0.010502735892232468
0.15481814499032337,-0.0057924046917122215
0.15002276028992156,-0.007594249792253116
0.1518704758059775,-0.006902633801987556
0.145926465402643,-0.009111077828148993
0.14797516832616742,-0.008354457817320467
0.14416444843925405,-0.009758468681239021
0.25353067557564135,0.02979465665011964
0.25175011007659864,0.029119237572804935
0.24765739468074244,0.027549689717791002
0.24964629619124112,0.02831280698076976
0.24576656489924883,0.026818186374657313
0.2438302473098935,0.026061127554836857
0.24191357089876853,0.02530379651855064
0.23619765068909782,0.02299520066277021
-0.2421902770624038,-0.0016773104235433402
-0.024926261639907174,-0.05311559933227923
0.024908519478418538,-0.053085527821874375
0.10110744425311259,-0.025141194951124254
0.13820819280283245,-0.011905143987075957
0.13624644871953576,-0.012592341858329402
0.11078539589175898,-0.021640268546866712
0.15381624351943896,-0.006171539813801317
