"Plane Section: Position[X] (m)","Plane Section: Position[Y] (m)"
3.5,0.008202403398694432
3.2700000000000005,0.008278693639930394
3.04,0.008613106787352578
2.8100000000000005,0.009135808907698004
2.58,0.009951743280515757
2.3500000000000005,0.01126428556365736
2.2604618070469815,0.01199999999999977
2.12,0.01315578681051182
1.8900000000000003,0.014798633128154772
1.6600000000000006,0.018084288242395885
1.5593665794762854,0.019999999999999903
1.4300000000000002,0.022283454289982196
1.2000000000000004,0.023907968281106022
1.1760000000000004,0.024726164036199854
1.1520000000000004,0.027061875636611832
1.1459133132661377,0.02799999999999993
1.1280000000000006,0.030566915682407565
1.1040000000000003,0.03421299480003395
1.0942754669228416,0.03599999999999953
1.08,0.03850785843186871
1.0560000000000003,0.041818708350286476
1.0320000000000005,0.04373799900465708
1.0279546068053889,0.04399999999999913
1.008000000000001,0.04535177469509505
0.9840000000000009,0.04739970510419942
0.9600000000000007,0.04913939514302207
0.9424038584378773,0.05199999999999873
0.9360000000000005,0.054747324786346585
0.9249434604601376,0.05999999999999829
0.9120000000000006,0.06384308316288838
0.8880000000000005,0.0657237677788643
0.6252918769549998,-0.011999999999998732
0.6240000000000001,-0.012387166035822324
0.6533433994855387,-0.003999999999999083
0.6480000000000008,-0.005654186086315115
0.6795419993332785,0.0040000000000002724
0.6720000000000006,0.0015751584869457783
0.7022870596721738,0.011999999999999797
0.6960000000000003,0.009733377490184835
0.725357814508555,0.019999999999999494
0.7200000000000003,0.018263595449830944
0.865319685489214,0.0679999999999979
0.5643407745900482,-0.027999999999997305
0.5520000000000002,-0.030858148463483257
0.5959499020664172,-0.019999999999997953
0.5760000000000003,-0.025223359596106214
0.6000000000000005,-0.018819755383137175
0.7436748330929275,0.027999999999999192
0.7594051330427487,0.035999999999998644
0.744000000000001,0.028146565169133674
0.7779465802000656,0.04399999999999826
0.7680000000000011,0.03958641709897895
0.7961262446168793,0.05199999999999788
0.7920000000000005,0.05038384024099529
0.8625064818703513,0.06799999999999787
0.8400000000000003,0.06647970799913097
0.8640000000000007,0.0681331221686618
0.5241476681637753,-0.03599999999999639
0.504,-0.03917300835922686
0.5279999999999998,-0.03532541505131294
0.8152174433250816,0.059999999999997805
0.8160000000000003,0.06027691204875528
0.4642331755348864,-0.04399999999999546
0.4560000000000003,-0.04480000893720859
0.4800000000000003,-0.04264153205185524
-0.4595767720300008,-0.04399999999999683
-0.45600000000000007,-0.044442244590731456
-0.4800000000000002,-0.041800433056424245
-0.5040000000000002,-0.037884495964042905
-0.5145229718372297,-0.03599999999999799
-0.528,-0.03355580018148237
-0.5519999999999998,-0.028312392297260597
-0.5531787877464263,-0.02799999999999873
-0.5759999999999998,-0.02272095869418244
-0.5872310617405909,-0.019999999999999202
-0.5999999999999999,-0.016927829065179374
-0.6222719050819112,-0.011999999999999934
-0.6240000000000001,-0.01157046485699334
-0.6479999999999998,-0.0067112286601054855
-0.6607696333380778,-0.004000000000000248
-0.6719999999999998,-0.0015801474688733074
-0.6960000000000002,0.003735859921453699
-0.6969383235369171,0.003999999999999233
-0.7200000000000002,0.010600790577156478
-0.7241608359573654,0.011999999999998888
-0.7420773712200806,0.01999999999999859
-0.7439999999999999,0.020856655912407825
-0.7584607991710766,0.027999999999997978
-0.768,0.03388532984915063
-0.7713926380553718,0.0359999999999978
-0.7823747317275118,0.04399999999999742
-0.792,0.05128581195911305
-0.7929696108085988,0.05199999999999723
-0.8033505837592059,0.05999999999999679
-0.8159999999999998,0.06544724543895217
-0.8253682971551037,0.0679999999999967
-0.8400000000000001,0.0711698915948672
-0.9220435397496438,0.05199999999999803
-0.9360000000000002,0.049814047751773095
-0.9078981717099431,0.05999999999999772
-0.9119999999999999,0.056469164884476605
-0.864,0.0717749327757676
-0.96,0.04881401383796561
-0.9018802582912188,0.0679999999999975
-0.8879999999999999,0.07035606331110814
-0.984,0.04840072991836307
-1.008,0.047761938695482606
-1.0472477763042551,0.043999999999999234
-1.056,0.04273546999707785
-1.032,0.04623458922369213
-1.0905189867967677,0.03599999999999961
-1.104,0.032891799908956645
-1.08,0.0384007552817348
-1.1311313282131175,0.027999999999999928
-1.1520000000000001,0.024955349205419017
-1.1280000000000001,0.02848977121211599
-1.1760000000000002,0.021926313806225374
-1.2000000000000002,0.02216910147032952
-1.6009509782165852,0.020000000000000174
-1.6599999999999997,0.01895017492099036
-1.4300000000000002,0.0227097381918129
-1.8900000000000001,0.015405014556137818
-2.241220525379034,0.012000000000000205
-2.35,0.010943380234829464
-2.1199999999999997,0.013204524255429506
-2.58,0.009973372426007151
-2.81,0.009364976058860889
-3.04,0.008631919934427969
-3.27,0.00816670620363189
-3.5,0.00807967835964375
-0.2578939488870333,-0.14881624080866468
-0.261800198840316,-0.14881687024264728
-0.2539876988908357,-0.14881598169741275
-0.2657064488993709,-0.14881658604240294
-0.2500814488290033,-0.14881628895775903
-0.2578939507692426,-0.14879999848421585
-0.2618002002197941,-0.14880496617298633
-0.2625742834503251,-0.14880592475171697
-0.26570644991982173,-0.14880778018026725
-0.2696126990647725,-0.1488153563208341
-0.2422689488191186,-0.14881592248089184
-0.25398770090972933,-0.14879855983837612
-0.23445644890653805,-0.14881471611489921
-0.26901105306332646,-0.14880667066267197
-0.271502048489522,-0.14881468431450412
-0.2500814507408571,-0.14879979079841477
-0.21883144893850232,-0.14881353575269904
-0.22664394896117707,-0.14881379239891257
-0.26180020361686207,-0.14877565148952088
-0.25789395529375503,-0.1487609546225149
-0.265706452785287,-0.1487830529107806
-0.26204402324818893,-0.14877689459762322
-0.2696127001042545,-0.1488063863595597
-0.273518949446046,-0.1488120057747806
-0.24226895081125602,-0.14879873151183776
-0.2539877057435392,-0.14875684693612456
-0.2032064492006271,-0.14881036936579053
-0.21101894898660462,-0.14881266849170596
-0.23445645121288283,-0.1487948137233758
-0.19217087882244555,-0.14880549119559122
-0.1953939495226283,-0.14880713856912114
-0.26961270333076814,-0.14877854385007683
-0.27351895062078213,-0.14880187009814402
-0.2774251985835793,-0.14881300356373395
-0.2500814552702977,-0.14876070440212835
-0.21883145123088937,-0.14879375382065013
-0.22664395138918875,-0.14879284009457644
-0.18758145006507526,-0.14880200518333964
-0.2793783225966643,-0.14881363139791082
-0.2632246441088678,-0.1487118518226712
-0.2657064588915187,-0.14873035976088822
-0.27015276211182987,-0.1487778342610742
-0.2769675288247667,-0.14879600519902494
-0.2422689557097113,-0.1487564607370991
-0.20634337253948035,-0.14878782107329397
-0.21101895133722692,-0.14879238401944267
-0.23654568196602893,-0.14874786794272307
-0.180235239023406,-0.1487963830718203
-0.2813314429274696,-0.14881391478207426
-0.26277094788734545,-0.1486906810595272
-0.26293982609370403,-0.1486531571874047
-0.2696127098799929,-0.1487220287007453
-0.2735189540518797,-0.14877226634875035
-0.27742520111744273,-0.14879121495926068
-0.25398772124167246,-0.14862310722063238
-0.25579058180435876,-0.14858902026665213
-0.2568411662640631,-0.1485644580129346
-0.20320645303285506,-0.14877729951494872
-0.22348042471819268,-0.14874635390399227
-0.21883145594030629,-0.14875311433278177
-0.23445645722755698,-0.14874291064372697
-0.1797689507290368,-0.14879582348660778
-0.19984840649568458,-0.1487696871947442
-0.17195645148563565,-0.1487888422118101
-0.27937832555064707,-0.14878833153935256
-0.2832845629716281,-0.1488113217538772
-0.2657064741055175,-0.14859907203027894
-0.2719256944279233,-0.14871286012483897
-0.2774252036840815,-0.14876914388913343
-0.2500814710416766,-0.14862460673431557
-0.25398773748371434,-0.1484829480233459
-0.20320645506683566,-0.14875974746496595
-0.21101895490572067,-0.14876159002758307
-0.2266439575592644,-0.1487395959929015
-0.19388748503849182,-0.14874292459096727
-0.1953939565218973,-0.14874673902046687
-0.1963607013778123,-0.148743211194228
-0.15633145215380229,-0.14878217186919016
-0.16414395192616546,-0.14878458843382492
-0.27937832788562206,-0.14876833282359264
-0.28133144607734706,-0.1487874675775106
-0.2839531361797156,-0.14880840219326127
-0.2662088040405142,-0.14856554356112683
-0.2735189616089845,-0.14870706268173656
-0.24346260082473214,-0.14856290766716598
-0.2525755846672635,-0.14843197503840025
-0.18856178205799698,-0.14870319968036602
-0.18758146043394136,-0.14871252801940765
-0.1953939573843193,-0.14873929683109702
-0.14851895220169872,-0.1487813063422868
-0.14070645220925213,-0.14878078892255706
-0.12508145186175307,-0.14878288298549217
-0.13289395215091493,-0.1487808401794662
-0.1045656867855655,-0.14878761427142673
-0.10164395115924776,-0.14878758887030502
-0.2813314486500835,-0.14876586075029255
-0.28328456565499965,-0.1487892875150163
-0.28376898478749446,-0.14879679337085994
-0.2651445414982845,-0.14823544856402662
-0.2657065005545206,-0.14837083287004285
-0.265947644390938,-0.14843352463026666
-0.27742521193610603,-0.1486981843102471
-0.24226898163326588,-0.14853275581854614
-0.2500815070951155,-0.14831348692715957
-0.23893897098224046,-0.14843039478928038
-0.1847742279431342,-0.1487027607679487
-0.1875814623101006,-0.14869633787776182
-0.10945645123863566,-0.14878735600629991
-0.11726895145102816,-0.14878597544805594
-0.09383145112102159,-0.14878746649328442
-0.2793783354322654,-0.14870369970823807
-0.28328456967285326,-0.14875628977827235
-0.2654323789802164,-0.1474930456678712
-0.2648580391663225,-0.147938440862703
-0.26570661463185297,-0.14738641342240388
-0.24879827733327192,-0.14823355431298862
-0.2344565078352509,-0.1483061962355256
-0.08601895112326577,-0.14878699492949732
-0.07820645115081276,-0.14878630498701417
-0.06835021857685242,-0.14878341752117982
-0.0703939513010413,-0.1487845563835191
-0.2813314557126242,-0.1487065606269883
-0.2833801635924805,-0.14875329525409006
-0.2677541405294185,-0.14682512209370968
-0.2696130797618386,-0.1455301954735848
-0.2471360657870462,-0.14793638719061514
-0.229053509762228,-0.1482312662338313
-0.06258145189027071,-0.14877901935463106
0.05680134769869684,-0.1487573271234977
0.06241854669689374,-0.14875959215205514
-0.283284575530266,-0.14870820310560928
-0.2834974558234622,-0.1487142010930744
-0.2735194210675232,-0.1447425076140638
-0.24664956656095144,-0.1474908690627736
-0.21883154535438676,-0.1479815237986513
-0.22664402089488675,-0.14819304710174888
-0.15633147626206467,-0.14857413184773072
-0.1641439766109026,-0.14857157378012603
-0.16795558676196987,-0.14855415770215147
-0.05476895250429231,-0.14877326864984713
-0.04761959818988965,-0.14876942771620183
0.038981044956480124,-0.1487459300506259
0.03116854501974406,-0.1487469281984259
0.046793545290838276,-0.14874836312984505
0.021949433059276234,-0.14874398463769561
0.023356044816094018,-0.1487456230227904
0.07023104686395767,-0.1487605816046972
0.0780435469616912,-0.14876097275532257
0.05460604619239292,-0.14875569081004572
0.09366854662932982,-0.1487572002064353
0.08585604693458075,-0.14876028659330803
-0.2774256809121972,-0.14465777990914114
-0.24628401130290617,-0.14682263407478757
-0.21754954173141755,-0.1479329586210545
-0.1471773657097642,-0.1485517498634938
-0.1485189772247275,-0.14856537242359885
-0.1622347311910719,-0.1484215060863828
-0.16414398705228544,-0.148481470835148
-0.046956452958251446,-0.14876889902525486
-0.02351895453984954,-0.14875389413570714
-0.03133145439023857,-0.14875563733948333
-0.017201351543284275,-0.14874852154065507
-0.039143953833522316,-0.1487608937442812
-0.007893957781915355,-0.14872501259401022
-0.01570645535553633,-0.1487464030008379
-0.006476894697672122,-0.14872120692500382
0.015543542963277764,-0.14873008654459377
0.09897999722439385,-0.14875243934304191
-0.27937875375177706,-0.14510800658468054
-0.24579430652681966,-0.14264599884459667
-0.20992312117679957,-0.1474866130990608
-0.21101909386620477,-0.14756244337912156
-0.14323013545005653,-0.1484193037804136
-0.156331506529982,-0.14831293764920478
0.011523060169013829,-0.14871912103964374
-8.146186675530263E-5,-0.14868931064741475
0.10148104573661168,-0.14874904437128655
0.10929354513352563,-0.1487433878945249
-0.28133181609284824,-0.14564882887665917
-0.24227026859610384,-0.13742702900874096
-0.20467409655830576,-0.14681781220091777
-0.23930380364624698,-0.1348327466544755
-0.14070650530987905,-0.14832256197368815
-0.15222556245915558,-0.1482223631953567
-0.13787042541066802,-0.14822069968173024
0.007731039450219153,-0.1487002231450158
0.1171060450207275,-0.14874196225941527
0.12491854494021305,-0.14874081531706768
-0.2832849011136876,-0.14599393850832254
-0.3017198714028734,-0.15005437540021405
-0.30107305946834323,-0.1502902159984425
-0.203206832028338,-0.14550679302904718
-0.23445838746349507,-0.13208611809376974
-0.20031775680988007,-0.14264072889419763
-0.1448942628483334,-0.14792453912312573
-0.14851903236969582,-0.1480895040356432
-0.12876355342877122,-0.14792266985117916
-0.1328940352452772,-0.1480637850678631
0.1327310448605384,-0.14873967553550357
0.1405435447910674,-0.14873862384780473
-0.3024271585577017,-0.14979518170743597
-0.28523799597655153,-0.1462541172121245
-0.30496659032598195,-0.14882904873721553
-0.3050289800154406,-0.14882944171529056
-0.3000541241548442,-0.15066236930823612
0.14835604502498922,-0.14874019026790267
0.1561685453981812,-0.1487429584178064
-0.2032077359666276,-0.13770634115010033
-0.2081627834780777,-0.1348291379455331
-0.2188334189380547,-0.131813606773526
-0.2266460475077198,-0.1307045790387099
-0.14170413892936026,-0.14747870769165694
-0.12508158538547054,-0.14763065240982154
-0.29447363974485735,-0.15269412198231241
-0.29625578795028296,-0.15204559927908773
-0.2923668229477555,-0.15346062872228966
-0.2903605269950954,-0.1541906640958125
-0.28846088024794897,-0.15488188230058214
-0.2865076812938303,-0.15559254526012542
-0.2845663760744088,-0.15629892060933265
-0.28260129238488163,-0.1570139212671861
-0.28064807974786843,-0.15772455980416977
-0.2871910909552081,-0.1465132967720284
-0.30487713941472305,-0.1488280362232959
-0.3047913019786397,-0.14882595885437577
-0.3048090050626163,-0.14882610928868556
-0.2981551357656669,-0.15135420451204898
0.16398104545218034,-0.1487429722502798
0.17179354527241905,-0.1487409687252837
-0.21102067924549503,-0.13388155939037422
-0.1407066179503489,-0.14735054144612492
-0.12369475086017956,-0.14747662071314716
-0.12508163319395146,-0.1472180935469467
-0.13289417095360959,-0.1468927025558307
-0.278776395891014,-0.1584055401293434
-0.2890033858524154,-0.14682758451598277
-0.2891441770177625,-0.1468362818279861
-0.3046241790781959,-0.14882270405929235
0.17960604449741444,-0.14873382866286577
0.18422564507658945,-0.14872517961413992
-0.26111604661600146,-0.16483120143677774
-0.2591628525027,-0.1655418908856658
-0.2572940944642196,-0.16622182024581333
-0.27674165761201075,-0.159145845503393
-0.27478844177576206,-0.1598564752473568
-0.27299554192193454,-0.16050885334257697
-0.2708820500215038,-0.16127784444946205
-0.2688778911451306,-0.16200701763001477
-0.26502242990846336,-0.16340980897772023
-0.2630838037047466,-0.16411519914076264
-0.2910971077608472,-0.14708688811704804
-0.3044908750169323,-0.14881869824635907
0.17176491180361175,-0.1486614440103198
0.17179353606927694,-0.1486615510573692
0.19515191774853793,-0.14872391344695007
0.19523104346014175,-0.14872397311064267
0.18741854136915703,-0.14870638138970035
0.2103137027017151,-0.14873953768032963
0.21085604538473984,-0.14873967689749668
0.20304354493965934,-0.14873628831614974
0.21123466123576348,-0.14873943095706613
0.13593328280204223,-0.14851894220581482
0.14054352181740365,-0.14854037474405224
0.12245270567568439,-0.14838851570603565
0.12491850847991805,-0.14842618456897888
-0.25525643515936136,-0.16696318975700383
-0.2533032253112653,-0.1676738359593049
-0.2515138517262326,-0.16832505426609462
-0.2669756319009254,-0.16269914118449297
-0.2924301547278487,-0.14749617424600808
-0.29304870531114036,-0.14767039023651735
-0.30434177393250816,-0.1488116250257
0.14835602484159538,-0.14856601952175985
0.15862751318169188,-0.1486043047792435
0.1639810313853086,-0.1486215834797081
0.1561685271008163,-0.14858506299600613
0.17960603637579178,-0.14866374386640402
0.17975860049126524,-0.14866051767920718
0.21866854485496395,-0.148734653022219
0.13273101689709782,-0.1484983676106265
0.11710598801441907,-0.14825003159070393
0.1152294100921773,-0.14819136976141
-0.23581190807493255,-0.17403837324837823
-0.2376777013779186,-0.17335943118154412
-0.24739525150465097,-0.16982348178127718
-0.2493968613424536,-0.16909528152863834
-0.23963088592704196,-0.17264871544587432
-0.2939559313751967,-0.1479418128082367
-0.29499519514420575,-0.14811328776071647
-0.2961581119276107,-0.14823904250373793
-0.29692212485883573,-0.14828751675306723
-0.30420149527422435,-0.14880063524343493
0.1623818443176144,-0.14851587727216964
0.16398102210237314,-0.14854147725077485
0.14853597876124489,-0.14838549310304072
0.156168513236563,-0.14846542269622118
0.17318540430535778,-0.14860261776990277
0.17960603586515064,-0.14865933733643702
0.17179352775796158,-0.1485898293338943
0.2264810443555222,-0.14872989088789607
0.234293544439691,-0.14873016495378397
-0.007894468593589145,-0.14431701048573278
-0.015706906249401187,-0.14485545608332331
-8.215833332047304E-5,-0.14267921681941614
0.03898056250140727,-0.14458262860791726
0.03116805483351953,-0.14451691149762533
0.04679298474076106,-0.14391114806648425
0.023355541297734636,-0.14440055789686085
0.015543104584775511,-0.14494713979257046
0.051093939415447015,-0.1426115946002021
0.13856298179182158,-0.1481886658015391
0.14054348755105586,-0.1482446764626716
0.11284960757031702,-0.14789467103898674
-0.23181812856315537,-0.17549152570761234
-0.23377133531403024,-0.17478087099272469
-0.230032225487684,-0.17614131526900334
-0.2279809070068047,-0.17688772103000006
-0.2259126968895186,-0.17764016794396414
-0.22787596568117424,-0.17692590277755255
-0.24549044788580365,-0.17051659108243605
-0.2435372693845969,-0.17122732344064784
-0.24160134048187976,-0.17193175698783333
-0.2988079928778893,-0.14833539735091744
-0.3036281445265563,-0.14874190558446054
-0.30394271297324327,-0.1487718914486114
-0.3040392313278335,-0.14878320844481457
0.14835600367729146,-0.14838338411238686
0.24210604479604803,-0.1487327881625452
0.24991854494118115,-0.1487335882312271
-0.3360301371213217,-0.052272930018455066
-0.3282175430384172,-0.05308435720528289
-0.3076093167367644,-0.056715661565278
-0.3047795823570998,-0.057058407636567554
-0.29696683193337314,-0.059218963638503846
-0.32040487878032375,-0.05450135527490416
-0.31259219107937003,-0.05612065090001372
-0.28134163397678313,-0.06092630724082325
-0.2891541434362572,-0.06084512991238229
-0.25734422131529805,-0.06452233675714271
-0.2500908472401405,-0.06771356906651305
-0.23446528641222547,-0.07255227791432203
-0.23506191661943074,-0.07233225467344834
-0.10945962128374015,-0.1214317448807308
-0.11673438029573525,-0.11919354286039203
-0.12508532836742492,-0.11533093571908792
-0.13289820134422362,-0.1121128194173485
-0.1348020026126519,-0.11138313653484687
-0.07973106816043685,-0.13481425491738347
-0.07820797867883109,-0.13560464319000942
-0.09383389221393632,-0.1277222808882566
-0.09607013379141663,-0.12700364828183214
-0.10164668642643367,-0.1251838535980959
-0.051062464319339855,-0.14262343277139525
-0.04695702522026049,-0.14383061692593613
-0.06258283761732478,-0.13682101587112475
-0.07039542037797142,-0.13610729284582954
-0.02351948109115839,-0.14421006830187527
-0.031331961225978394,-0.1443819451842477
-0.039144453297569146,-0.14445081493088513
0.007730530370170988,-0.1443071639396989
0.054605086067733455,-0.14047038383261135
0.06241715453313575,-0.1367460437222316
0.13321229416375954,-0.14789231135363326
0.11300547697658761,-0.14744919122545844
-0.22400529620459178,-0.1783341298489359
