"Plane Section: Position[X] (m)","Plane Section: Position[Y] (m)"
-3.5,2.931129482449149E-4
-3.27,2.954661822947513E-4
-3.04,3.0633841245824396E-4
-2.8099999999999996,3.2593536582875093E-4
-2.58,3.5500924689082353E-4
-2.35,3.973585683911045E-4
-2.12,4.5818105310150496E-4
-1.89,5.465172970468999E-4
-1.66,6.789079541648184E-4
-1.43,8.812395575613385E-4
-1.2000000000000002,0.0011057316994775418
-1.176,0.0012359255064608408
-1.1520000000000001,0.0012802832090299554
-1.128,0.0013300559525176296
-1.104,0.0013845114283474883
-1.08,0.001441714592226793
-1.056,0.0015072624598830484
-1.032,0.0015729574904399233
-1.008,0.0016464935952619961
-0.984,0.00172440531507691
-0.96,0.0018086396109751111
-0.936,0.001902910552469533
-0.9119999999999999,0.0020007022964114536
-0.888,0.0021099284630451123
-0.864,0.002228012868638168
-0.8400000000000001,0.0023577516763062787
-0.8160000000000001,0.002502499310084659
-0.792,0.002654482985452308
-0.768,0.0028294005061304927
-0.744,0.003022287850384079
-0.72,0.003238421140261454
-0.696,0.00347474730626898
-0.6719999999999999,0.003748976770706214
-0.648,0.0040560357050145514
-0.6240000000000001,0.004408329909461735
-0.6000000000000001,0.00480489551346416
-0.576,0.00531233546737587
-0.552,0.005829231217627559
-0.528,0.006542344697146006
-0.504,0.007607656092723904
-0.48000000000000004,0.00924577265854808
-0.456,0.009830503706662396
0.4799999999999999,0.009288374443521954
0.45599999999999985,0.009808169535651745
0.5039999999999996,0.007647327456135788
0.5279999999999996,0.006553072275934784
0.5519999999999994,0.005827054208249426
0.5759999999999994,0.0053005571400540005
0.5999999999999994,0.004802875150942968
0.6239999999999994,0.004413074792767429
0.6479999999999994,0.004053051810038665
0.6719999999999994,0.003748403615044175
0.6959999999999995,0.003472873188272981
0.7199999999999993,0.0032381647224984413
0.7439999999999993,0.003019943950542491
0.7679999999999993,0.0028276510840835704
0.7919999999999993,0.0026556884234884785
0.8159999999999994,0.0024996140973836834
0.8399999999999994,0.002356836349933199
0.8639999999999994,0.0022275711187469457
0.8879999999999993,0.0021085521603470604
0.9119999999999995,0.002000066048005793
0.9359999999999994,0.0019011000710605654
0.9599999999999994,0.001809108094164642
0.9839999999999993,0.0017233228205787946
1.007999999999999,0.0016453941893379669
1.0319999999999994,0.0015722717002413285
1.0559999999999994,0.0015047606161820242
1.0799999999999994,0.0014408152883908685
1.1039999999999992,0.0013828317764945195
1.1279999999999994,0.0013291911985031414
1.1519999999999995,0.0012836651713257893
1.1759999999999997,0.001236484354269469
1.1999999999999997,0.001103521173980453
1.4299999999999997,8.808497491832998E-4
1.6599999999999997,6.789841162951375E-4
1.89,5.462424017362072E-4
2.1199999999999997,4.5796332108615845E-4
2.3499999999999996,3.9721686025034366E-4
2.58,3.5484954387165856E-4
2.81,3.257696545999754E-4
3.0399999999999996,3.0616507527942707E-4
3.2699999999999996,2.952614118582839E-4
3.5,2.929308129407985E-4
0.30490292753890713,0.026083713163574027
0.3047764218838944,0.026082557112451242
0.304812885063287,0.02601311894233872
0.3047950238315596,0.02600795188840501
0.30501175509696626,0.026084635233863694
0.3048385493166362,0.026016600271121466
0.304600993135164,0.025931177130666942
0.3050570921491735,0.026092623999028015
0.3050560596320676,0.026092865786049902
0.30382763831765813,0.025642119218710516
0.3022246159709801,0.025050015854846883
0.30172803386398706,0.024869021036227675
0.30026997073046263,0.024338095677404366
0.2996016493595885,0.02409514173195632
0.30506366305132654,0.026093782626398686
0.30319743476607963,0.025402006696598783
0.353515625,0.044406534872620605
0.3550141902513282,0.04397788566125961
0.3515625,0.04458833522337429
0.2985615539248143,0.02371888068091605
0.29747456202985484,0.023323312117206264
0.3050686720429452,0.026087230157796088
0.349609375,0.04455824499444576
0.34765625,0.044399580474364736
0.345703125,0.04414809207391818
0.34474381135287413,0.04397788566125961
0.3554109677683424,0.0420247606612596
0.3369780053675395,0.0420247606612596
0.337890625,0.042316231362166244
0.33984375,0.04285362247755071
0.2905968932281453,0.020815445207760398
0.2922271314641981,0.021410420205624194
0.2966285715191511,0.023014785034173757
0.29524181031264823,0.022508626983177016
0.2928458068962655,0.02163590639115686
0.2944925609634994,0.022235932456451057
0.2929354650509344,0.021668400953556717
0.30511119711363316,0.02608632863228381
0.30524877000089945,0.02612642197686809
0.30528046173000806,0.026139296457009006
0.341796875,0.043339679246203466
0.34375,0.04378579168222416
0.3359375,0.04168924025229513
0.3540758417179478,0.04007163566125961
0.33157863037471597,0.04007163566125961
0.33203125,0.04026678926946879
0.2899005773555111,0.02056155053383961
0.28782021576416694,0.01980240269684941
0.30537643651488117,0.02619064313960449
0.333984375,0.041003525790537836
0.330078125,0.03944251258086064
0.328125,0.03857165930709455
0.353515625,0.039519379097737874
0.3523446278533098,0.0381185106612596
0.28370580855171224,0.01830569280040413
0.2856506024926815,0.019013743805614127
0.30560859767637477,0.026284819272386094
0.3272143683587929,0.0381185106612596
0.3515625,0.03731510496250828
0.2817449640953913,0.01759066144748985
0.2797920609675848,0.016879185404563023
0.3060995951130484,0.026448068408174052
0.30661748248323345,0.026619276452290428
0.30682630801463856,0.026735927089392278
0.326171875,0.03762074221619224
0.32421875,0.03662416771040598
0.32340995626004093,0.036165385661259625
0.319943179225061,0.0342122606612596
0.3203125,0.03444762964927836
0.3505974623371771,0.036165385661259625
0.2779166993248727,0.016195762235818437
0.30812650215563353,0.027019295015978783
0.31669456342617375,0.0322591356612596
0.318359375,0.0332985640163609
0.322265625,0.03555611666413056
0.349609375,0.03496755072723562
0.3490525178387619,0.0342122606612596
0.2758862609334504,0.015456192001088123
0.27416536743074355,0.014829221412751835
0.27393343378859697,0.014744494287026847
0.27213705338288513,0.014086801558899943
0.31022754419159465,0.02835288566125961
0.310546875,0.028618899351783984
0.30870094485099053,0.027142054952183917
0.31640625,0.032098165637403954
0.314453125,0.030926891349005683
0.31355266177169505,0.03030601066125961
0.347864260904967,0.0322591356612596
0.2680230928862777,0.01258232174519213
0.2700296087977315,0.013316072901823961
0.264172649670125,0.011176797255808736
0.2661252340107396,0.011889162069009524
0.3125,0.029758903400638158
0.34765625,0.03172567512407602
0.3471312748830005,0.03030601066125961
0.26223138184681,0.010467083414898392
0.3469552254462684,0.02835288566125961
0.2602683720571557,0.0097496194395711
0.2583160629499513,0.009036498428817747
0.2566962447394104,0.008443578200402903
0.3474391180021652,0.02639976066125962
0.25644465359660107,0.008351246688794943
0.3487429628197194,0.02444663566125961
0.34765625,0.0260836591114969
0.25246005212936684,0.0068946173307660105
0.25441235555966796,0.00760775393868246
0.2506673166305754,0.006237606482214162
0.24855611049350101,0.005466516425056178
0.35105396567837344,0.02249351066125961
0.349609375,0.023727104887328897
0.3541227181424108,0.020540385661259625
0.353515625,0.02093305190515965
0.3515625,0.022183404784228204
0.24655199652516355,0.004734126528598288
0.2407625064370459,0.002613164495597528
0.2427002593696549,0.003324196563837598
0.35546875,0.019828862774518716
0.484375,0.008786583046293229
0.4921875,0.008401372025105462
0.24465156235082966,0.004040081883039676
0.23879605651718688,0.00189681334481822
0.357421875,0.0188074709717874
0.3578156157611462,0.018587260661259625
0.4765625,0.007850972388845641
0.23684359730901,0.0011841047330825145
0.23507331415340216,5.323712885525308E-4
0.359375,0.017982973359174675
0.361328125,0.01719887085608088
0.36328125,0.01681100219642406
0.46875,0.007684748596996423
0.46484375000000006,0.007642712381148581
0.4609375,0.007715327124680944
0.23497635025227148,4.96490352168549E-4
0.22920317554162867,-0.0016268540391663631
0.2309905704118327,-9.65974626858346E-4
0.36651349774663994,0.016634135661259625
0.365234375,0.016652388337642626
0.373046875,0.015590327442295757
0.375,0.014764030054783137
0.37109375,0.016259162362209582
0.369140625,0.016499600313982815
0.3671875,0.01662506162342676
0.37574697290585246,0.014681010661259621
0.45703125,0.00785163635301214
0.453125,0.00809306504966323
0.22708902659282354,-0.0024006634800018516
0.22508796962148792,-0.003133480531563886
0.23294233254768928,-2.5135082473130437E-4
0.37890625,0.014384538710863617
0.380859375,0.0141589238546965
0.376953125,0.014564978189506562
0.3828125,0.014045030910973115
0.39306915667108455,0.012727885661259644
0.392578125,0.012839503732406894
0.390625,0.013303114506822497
0.4296875,0.00923516901159602
0.42578125,0.009434576266010306
0.421875,0.009891274895673208
0.4370948405826203,0.008821635661259677
0.43359375,0.009109346477819956
0.44531249999999994,0.00837538798842134
0.44140625,0.008460554607383196
0.4375,0.008787256070050823
0.44921875,0.008320222679580262
0.22123517761762762,-0.004548484199230176
0.22318601174284197,-0.0038313107089101668
0.21930088060582925,-0.00526065202057365
0.388671875,0.013661929280487433
0.38671875,0.013850441631382467
0.384765625,0.013990024451466295
0.39648437499999994,0.01221840427116117
0.3984375,0.012077578709014006
0.39453125,0.012443475926989682
0.404296875,0.011364732657747317
0.40625,0.011243610556526725
0.40234375,0.011599438429265647
0.400390625,0.011873664114372797
0.408203125,0.011169619404612524
0.41015625,0.011136689998206741
0.41796875,0.010336914055421195
0.4140625,0.010656471593234454
0.21733281745022456,-0.005980930153675506
0.21656273673302312,-0.0062665836129542195
0.21538540726374086,-0.006707510838006896
0.21352588050407983,-0.00740722066640126
0.20564072418400137,-0.010319445107988112
0.20425147225629117,-0.010840000980776593
0.21148893938428565,-0.008156145719957902
0.20953464511205644,-0.008863812534827212
0.2077516879610942,-0.009525966182731301
0.2036489179291576,-0.011069694841781828
0.19980289811108665,-0.012511288387851954
0.19786980015412037,-0.013218370275296763
0.2017484141714738,-0.011779503635027066
0.18811098235854398,-0.01685029105697611
0.18632256690052634,-0.017486410812110487
0.19589499733171647,-0.013928511636572521
0.1939493112231929,-0.014659829185999219
0.19210523860387602,-0.015392838844887737
0.1918020679150172,-0.015509938923514363
0.18833005944088027,-0.016773646661220214
0.1846167681285975,-0.018125174170050426
0.19007458009188588,-0.016168185290521473
0.18420756263283075,-0.01827982589899364
0.1822370235188584,-0.019080511338298838
0.18034621852210597,-0.01982496253896228
0.17839340751766752,-0.020536704598447725
0.17646046548244548,-0.021235813006050746
0.17450090771064025,-0.021996241669402936
0.17405214045397052,-0.02217847217197403
0.16495926641683162,-0.02562757119808683
0.166731176282885,-0.024957264806904817
0.17256910648958637,-0.02276570763225815
0.17071114542098687,-0.023451353322150252
0.16867335199795389,-0.02421630253107341
0.1433124788855067,-0.03298972642074406
0.14508359597498943,-0.03232853492659617
0.16283731186418376,-0.026413052638233767
0.16086464858243124,-0.027199894601903665
0.14118122813102152,-0.03376095978985351
0.13918301411887507,-0.03446958196861591
0.1489483732558355,-0.030968682879619427
0.1470452354560767,-0.03164104890648294
0.14911512063100124,-0.030955017993659843
0.14934901121462527,-0.030961587916072383
0.15938660713707908,-0.027828421757343395
0.13532045534981724,-0.03588975750909845
0.13727078782510144,-0.03517120574697207
0.13339103285605286,-0.03658166499769625
0.14914829037704833,-0.031046151118669943
0.1451980991885061,-0.032643129908923055
0.14434888825439396,-0.03298957183352201
0.15898674855892522,-0.027987809296723728
0.15704001475316176,-0.028716248321744357
0.1551143995760308,-0.029427063090241557
0.13141001158973384,-0.03729999397598163
0.12945796440126886,-0.0380138346025317
0.14713914068369463,-0.03189905138969332
0.14345002765157056,-0.03336763853604591
0.15314132032626512,-0.03015876581509591
0.1275997002383991,-0.038680092454125015
0.14135489559498254,-0.03423810720849448
0.13938432172969725,-0.03502267006390909
0.15120109582791805,-0.030905089014618994
0.14935376153627442,-0.031610678468778027
0.14357080556130986,-0.03369947310394111
0.14535169272052337,-0.033065124654803775
0.11770360207749962,-0.04229485821761892
0.11969439656693734,-0.0415738834375574
0.1255430197111955,-0.03941170486634374
0.12349114427581018,-0.04016263191218872
0.12173471431364517,-0.04082509303430369
0.13749732756126049,-0.035793618534390614
0.1374629323803442,-0.03580798679452822
0.14142785532695729,-0.03443856241744659
0.139425896742322,-0.035136896468218826
0.1473046500444629,-0.03235378460482917
0.10991018840172093,-0.04507722343157746
0.1102639103741971,-0.0449561923449985
0.11371754985899271,-0.04379165392475953
0.11191586316620272,-0.0444181592421662
0.10794870245983859,-0.04576513129717411
0.11579380767796621,-0.0430111959393237
0.1139348960884119,-0.043712546366720964
0.1374983276373398,-0.03579636622073788
0.10619588661612846,-0.04643683190522324
0.11384946890374809,-0.04374621525919842
0.10610884732826217,-0.046472614801119035
0.09666772032990054,-0.049997284372662015
0.09821441020975186,-0.04940561413597351
0.10407479978223769,-0.04727576355946539
0.10202590762605658,-0.04802709546243525
0.10025568637702671,-0.04865238855883544
0.09431601662950002,-0.05084895819865878
0.09450691052311805,-0.05078375482424134
0.0962387738500822,-0.05016019024326024
0.09235215088365144,-0.05153032760682963
0.09105501644759426,-0.05204014151957185
0.09045210522247976,-0.05228598297653268
0.08169936853819663,-0.055445318880867414
0.08259310502791037,-0.055102800475478914
0.08849713873510193,-0.05309286116927258
0.08653168654172787,-0.05376987184884613
0.08429793082966658,-0.054499519554885786
0.08465749139437824,-0.054373601646338185
0.0805614741632519,-0.05589375787194486
0.07905355437795439,-0.05654704180876523
0.0768211551489356,-0.05747563710419126
0.07883820867677167,-0.0566487928669486
0.07481764353790155,-0.05818373989442369
0.06903831677839377,-0.0602910720804741
0.07093027353196465,-0.059521711480003445
0.072886951212235,-0.05882059302467403
0.06781580236813124,-0.06084533703266044
0.06711107981077671,-0.061182655359298836
0.06520769964546687,-0.06203020752825164
0.06351600601018752,-0.06272246690873978
0.06131365775069232,-0.0634855077480942
0.06308346037417897,-0.06287990064520863
0.0592552160951888,-0.06419499556112111
0.03758524681644162,-0.071496936762004
0.038094234389095996,-0.07131628977232479
0.057495293458614816,-0.06485005682049498
0.05544394939060549,-0.06558975516700868
0.05345341752757177,-0.06628727568761363
0.0633885999725474,-0.06277585112864158
0.03567997732990026,-0.07219500747973912
0.03582148754804281,-0.07214220702974755
0.04215757575240574,-0.06997607979258696
0.041728951053990826,-0.07010444676054112
0.039635797662767674,-0.07077358485886862
0.04956418804769065,-0.06766638224359414
0.05153061016566721,-0.06699203640986914
0.04762015582146796,-0.06828412240806425
0.04446756142909152,-0.06934340175694649
0.04362834847034136,-0.06958893564286511
0.03377466060018739,-0.07290138172329452
0.04561416831606112,-0.06896788462619492
0.031797096327121695,-0.07362644455026741
0.00875717650648192,-0.0817714600133974
0.008434852743459103,-0.08188774716884376
0.01028632129553428,-0.08122260127913841
0.01215140395835395,-0.08056346478643059
0.012236284046777417,-0.08053421722735249
0.013757339903133582,-0.08002005570858894
0.006665237714730465,-0.08252530964209184
0.027920028092860025,-0.07504704970576144
0.026022690202911782,-0.07578451112207604
0.029869570757610125,-0.07432632795710467
0.014301209247024564,-0.07984838120699864
0.0036219808751640128,-0.08361884581872045
0.004642535130862279,-0.08325079864334964
0.0051161116531024085,-0.08308031139756969
0.002386192649307818,-0.08406607355841164
0.0012453621891253936,-0.08448495694789225
0.02455821319257001,-0.07638172390642305
0.015284270992399089,-0.07952595394571918
-0.002386113598325462,-0.08406520519306968
-0.0012452829361841032,-0.08448300920385829
3.6754760418029214E-4,-0.08480676685489409
-0.0036218058333977333,-0.08361905775107961
0.024057815431790714,-0.0765897990883081
0.018414077865323737,-0.07847928095482691
0.01814237995347469,-0.07856794737442124
0.020239172040207212,-0.07789962959924862
0.021005173797290236,-0.07767492448957436
0.01608626842991813,-0.07926645134596177
0.022121189495102705,-0.07734600309767811
-2.3663539299907554E-4,-0.08485441500309837
-6.973100147564812E-21,-0.08494193960159867
-0.005239226141530777,-0.08303362087698957
-0.005115261840036821,-0.08307828794552177
-0.008338569645893948,-0.0819238204516934
-0.0066640218614440715,-0.082522116216771
-0.012233729341286406,-0.08052719208004958
-0.010289103910528037,-0.08123044804384491
-0.008435511746962924,-0.08188985114208779
-0.013020878672116775,-0.08024700187208275
-0.014287538868818892,-0.07981079504081143
-0.014753621819978899,-0.07965743874436149
-0.016795100602997937,-0.07897605693637758
-0.016073198695282315,-0.07923053602617142
-0.020732228552678984,-0.07763554310546864
-0.02020198307073047,-0.07779745296613791
-0.018120050446658875,-0.07850659486482275
-0.02207708077532088,-0.07728478225512796
-0.027938324721001453,-0.0750973192766321
-0.026712420709715502,-0.07559765649175279
-0.0220970546653224,-0.07727969314345423
-0.03581755532030641,-0.07213140332322047
-0.034619507650358615,-0.07258098687743411
-0.03377380878168688,-0.07289904137128268
-0.03180419982794703,-0.07364596125768524
-0.029877911554976253,-0.07434924410870775
-0.026053484511018243,-0.07586911778521666
-0.024066096346306777,-0.07661255071549214
-0.04211016848511785,-0.06999333462676767
-0.041728960969077494,-0.07010447400201683
-0.03694610143897938,-0.0717341759911475
-0.039638701746658137,-0.07078156376349615
-0.03758985472353074,-0.07150959688222897
-0.04362763929184921,-0.06958698719104138
-0.04442730121259389,-0.06935805527737673
-0.049605761839685944,-0.06778060529425213
-0.04765930109164651,-0.06839167315010707
-0.07089648566781126,-0.05942888008951454
-0.06900086670507403,-0.06018817885335559
-0.04563037648762009,-0.06901241620996923
-0.05363456496334481,-0.0663190173214468
-0.05544779502504602,-0.06560032096041918
-0.050009372083307975,-0.06763847962325398
-0.06869149509916574,-0.0603185229519462
-0.06704691419722106,-0.06100636179126198
-0.0651211901750319,-0.061792524720173665
-0.0632837875464845,-0.06248788136506727
-0.08648214643464018,-0.05363376152813915
-0.08464869607129108,-0.054349436695624705
-0.07677515967010058,-0.057349265569220154
-0.07476866902763407,-0.058049183538153165
-0.07284844214525124,-0.058714790236480484
-0.08844714844253743,-0.05295551397417787
-0.06302871244449038,-0.06258769527362137
-0.05746412317713491,-0.06476441717903747
-0.05348675926897785,-0.0663788813659719
-0.05156984248426227,-0.06709982631546213
-0.08413884244585206,-0.05455742299121178
-0.08261743102204926,-0.05516963559268805
-0.08058707228057502,-0.055964088118752225
-0.07882643053115962,-0.056616432678995174
-0.08941485571785883,-0.05263711120460787
-0.06123466010757761,-0.06326846351521834
-0.05920366083327708,-0.06405334864823672
-0.09821328918697861,-0.04940253415132761
-0.09623066921328922,-0.050137922937475946
-0.09554291543234214,-0.050406679874730104
-0.09433267820470045,-0.05089473549865525
-0.09239669649252924,-0.051652715656974706
-0.09046167313262517,-0.05231227059266724
-0.10408077695252249,-0.04729218569926704
-0.10450598938657255,-0.04714438774786355
-0.10202998033282616,-0.04803828513192001
-0.10026503595849398,-0.048678076321878226
-0.1080143541362866,-0.04594550778930547
-0.10615617002744163,-0.04660263284388649
-0.10998278656289132,-0.04527668523294466
-0.110474326864799,-0.04511081588590334
-0.11393432772734371,-0.04397936295252024
-0.11199333451870584,-0.044631010026201234
-0.13534967304010964,-0.03597003245055092
-0.13343009214407137,-0.03668897950570435
