"Plane Section: Position[X] (m)","Plane Section: Position[Y] (m)"
3.5,0.0010940743749562254
3.27,0.0011100588938166703
3.04,0.0011542745637082234
2.81,0.0012159345859195864
2.58,0.00131919933002673
2.3499999999999996,0.0014885560867938085
2.1200000000000006,0.0017108901951177725
1.8900000000000003,0.0020115583365936654
1.6600000000000004,0.0024592963299722177
1.4300000000000002,0.0031593491307499565
1.2000000000000004,0.003981377107597718
1.1989621979617866,0.003999999999999791
1.1760000000000002,0.004403510692360406
1.1520000000000001,0.004628626848999081
1.128,0.004937506624008919
1.104,0.005226580051398076
1.0800000000000005,0.00554249717015568
1.0560000000000005,0.005808385900436032
1.032,0.006079609550634827
1.0080000000000002,0.006383507970245986
0.9840000000000002,0.006678083062175274
0.9600000000000002,0.00701559047148223
0.936,0.0073897452103831186
0.9120000000000003,0.007790376004434184
0.888,0.008244901220641246
0.8640000000000005,0.008754571221637138
0.8400000000000003,0.009319033390893159
0.8160000000000002,0.009934494532997025
0.7920000000000005,0.010643835830967013
0.7680000000000005,0.011425875590170706
0.7532710605533433,0.012000000000000116
0.7440000000000002,0.012368703159608054
0.7200000000000003,0.013371374685207098
0.6960000000000002,0.014422109997202132
0.6720000000000002,0.01582737566924788
0.6480000000000001,0.017473211097775956
0.6240000000000003,0.01933017911763397
0.6175455474352805,0.019999999999999334
0.6000000000000003,0.02177197124930801
0.5760000000000005,0.024772134510516873
0.5534044489888871,0.027999999999998672
0.5520000000000005,0.02822216420010639
0.5280000000000005,0.031686279481372225
0.5040000000000006,0.03561889302412503
0.5024773072719976,0.035999999999997936
0.48000000000000076,0.04223934244336511
0.475239225392648,0.043999999999997125
0.4606442077611164,0.05199999999999631
0.4560000000000004,0.054553217317155
-0.502424822533907,0.03599999999999649
-0.504,0.035608044367787556
-0.4756966073254498,0.043999999999995466
-0.47999999999999976,0.04236486491512329
-0.5279999999999998,0.031703241134281204
-0.45681322963805815,0.05199999999999483
-0.5535665022889642,0.027999999999997027
-0.5759999999999998,0.024807218621269746
-0.5519999999999999,0.028246059743004703
-0.45599999999999985,0.05231471641314499
-0.6173693181394546,0.019999999999998026
-0.6240000000000001,0.019303694999970387
-0.6,0.021777475152987488
-0.648,0.017432635724279635
-0.6720000000000002,0.01585837831899179
-0.6960000000000002,0.014470288132060201
-0.7200000000000003,0.013318142773338433
-0.7517623153557959,0.011999999999998928
-0.768,0.011381161850718375
-0.7440000000000003,0.012303269483666961
-0.7920000000000001,0.010605425190132925
-0.8160000000000002,0.009911623696578716
-0.8400000000000003,0.009283449059005078
-0.8640000000000002,0.00871207276249417
-0.8880000000000002,0.008207999906012581
-0.9120000000000001,0.0077403184886085255
-0.9360000000000002,0.007342279336499242
-0.96,0.006985191648172082
-0.9840000000000002,0.006642224550293187
-1.008,0.006343507413500281
-1.032,0.006051011980405117
-1.056,0.005783372843564174
-1.08,0.005529878788175434
-1.104,0.0052571246283779245
-1.1280000000000001,0.005001536081059943
-1.1520000000000001,0.004699435132143897
-1.1760000000000002,0.004486706732145779
-1.2109214882288315,0.004000000000000023
-1.43,0.003172649785481678
-1.2000000000000002,0.004043169806842129
-1.66,0.002467828334285831
-1.89,0.002021741689374766
-2.12,0.001705470251770019
-2.35,0.0014794471049228233
-2.58,0.001326613487518393
-2.81,0.0012239110434100907
-3.04,0.0011493942826681417
-3.2699999999999996,0.0011077978498858004
-3.5,0.001100227029806586
-0.30166237335156276,-0.03748638623746117
-0.29999548430948825,-0.03809308226147374
-0.358963234031634,0.012895908734683638
-0.35671667105294935,0.00898929713426774
-0.29441522510574697,-0.04012570465616137
-0.29619723890763744,-0.03947680971832736
-0.2923086268431959,-0.0408928117359011
-0.2903025082907704,-0.041623334460735115
-0.288403033824344,-0.04231502594930646
-0.2864500220716629,-0.04302620320527753
-0.28450889337435636,-0.043733063493379055
-0.2825440013489084,-0.04444859069437216
-0.280590995823638,-0.04515979822664224
-0.3033635370491568,-0.03686555020836766
-0.298096489526739,-0.03878510880796728
-0.35548367887865795,0.007469363952195621
-0.353505467748351,0.005082530289803147
-0.3499956780954956,0.0011757153924487939
-0.3515781318898157,0.0031007476941514716
-0.35938896074386334,0.013485379568451906
-0.278719505118173,-0.045841309196911185
-0.30337440573149344,-0.03686160080291768
-0.34962537602261945,8.069092750847479E-4
-0.34842027771122897,-7.776631693506419E-4
-0.3465823765600258,-0.0027310839766241514
-0.3476726317739382,-0.0015591231915515766
-0.3617070856875926,0.016802600366080507
-0.26106089107483615,-0.052271737628105754
-0.2591078863271573,-0.05298294729574006
-0.2572393166564877,-0.0536633941540884
-0.27668497364307,-0.04658218272702257
-0.2747319560294249,-0.04729335706337361
-0.2729392337367342,-0.047946222934354445
-0.2708259330757806,-0.04871573944079534
-0.2688219825305832,-0.04944548497260854
-0.2649669043344173,-0.05084932862978959
-0.26302846338210906,-0.05155522771098908
-0.30351200408776063,-0.036814223543632535
-0.3457198401777665,-0.003630952433977482
-0.34468595306344685,-0.0046845142021696646
-0.3427719591742967,-0.006637947255398726
-0.3437670342210748,-0.005613549693463372
-0.36329439017500076,0.018584464364803474
-0.3651576210830092,0.020709405727376094
-0.2552018683298599,-0.054405343283804294
-0.2532488617689328,-0.05511654797207147
-0.2514596417170764,-0.05576818797729879
-0.2669199148815959,-0.050138134888180336
-0.30353028817296096,-0.0368119567819934
-0.34181423036635217,-0.007609207943186077
-0.34082459493963607,-0.008591385679073665
-0.338877887473553,-0.010544823997051455
-0.3398614178484342,-0.009551035671439771
-0.3671997132640109,0.02434432751461664
-0.3673583266384862,0.024616009947741407
-0.2357592276644142,-0.06148570900716313
-0.2376248418170019,-0.060806274823861625
-0.24934284926985661,-0.05653895905873433
-0.24734146955156378,-0.05726779152983666
-0.23957783475546035,-0.060095032726908866
-0.3035918060370331,-0.03679574060409686
-0.33790860848312815,-0.011512452791668652
-0.33689638755364715,-0.012498267914341174
-0.3349120257928785,-0.014451712292199295
-0.33595579006692533,-0.013417630357129003
-0.3695092410234564,0.02852260615497651
-0.23176584534626932,-0.06293995263128385
-0.23371884355758,-0.062228725014121224
-0.22998017351889016,-0.06359037743003465
-0.22785987191194,-0.06436247099380249
-0.22586105433129944,-0.06509035487353902
-0.24543684511626074,-0.057961393063030706
-0.2434838412392559,-0.05867260512161637
-0.24154809724307488,-0.05937754662079095
-0.3037886004674165,-0.036731331488520376
-0.33287975313412915,-0.016405164380582662
-0.33400297463676915,-0.01534136233078556
-0.37110496818993244,0.03052773579759268
-0.37259551257018697,0.032429352893595345
-0.2142792305784213,-0.0693082315041775
-0.21614188444999227,-0.0686298416560039
-0.22395385754364475,-0.06578487694747093
-0.2220008694799054,-0.06649613243089456
-0.22006783297856983,-0.06720012408290746
-0.21809487473308947,-0.06791859226715352
-0.30408748422097565,-0.036630266635085014
-0.33205014857378046,-0.01719902505560618
-0.3308018804539469,-0.018358623807590423
-0.3750104046446163,0.035583178427620016
-0.2100606817903235,-0.07084458007527
-0.2102829270516674,-0.07076362676026222
-0.21223592004741335,-0.07005238482062538
-0.30428410543050854,-0.03657166496259098
-0.3300973152278818,-0.01901143395245901
-0.32844583298039726,-0.020312128002561533
-0.32814443970855145,-0.02056178967963367
-0.3261915378751698,-0.02194863772625846
-0.3258182788573547,-0.02226567589235999
-0.32348615671910885,-0.024219176236913893
-0.32423866920378197,-0.023541544493632965
-0.37566364270928854,0.03633609671263639
-0.2085010161754949,-0.07141329935998256
-0.2063773917786858,-0.07218734835858642
-0.20438133993513044,-0.0729148308264917
-0.2845954029289144,-0.043970627567847795
-0.28464419712753797,-0.043954780170517814
-0.2826307291286587,-0.04468675403751278
-0.2825671184125603,-0.044711153575712946
-0.3044551345747649,-0.036527824143043626
-0.3212990252064015,-0.026172653247450547
-0.32228582538191175,-0.025288858817860027
-0.37721460917309885,0.0402425963674636
-0.20051911020059315,-0.07432298933424243
-0.2024717248934415,-0.0736107085362053
-0.19858906513168412,-0.07502678908508434
-0.286005509359799,-0.04359952256002993
-0.2807033235744194,-0.04546826170548287
-0.3048150758959733,-0.03642019253077332
-0.320332980190018,-0.027027660175020098
-0.3187735203562828,-0.028126184713989047
-0.3158422174380837,-0.030079781487493795
-0.3164271462401493,-0.02961318608252178
-0.38001239336071807,0.04805554672904878
-0.3786206211057328,0.044149072606773476
-0.184897561236085,-0.08001950177000111
-0.18290415651739145,-0.08074624491571415
-0.19075602913424455,-0.07788437244826409
-0.1888031869816869,-0.07859602861871084
-0.1870247382693405,-0.07924400145100338
-0.1967691001400636,-0.075690223581216
-0.19466122839674754,-0.07645972813082147
-0.19280194249172625,-0.07713814690000802
-0.28014437097998096,-0.04573387074282968
-0.28468573380507595,-0.044218685381811534
-0.2831918206768325,-0.04483483577074128
-0.30549728723253544,-0.03618544188219992
-0.30563809861229907,-0.03608566559846316
-0.30554533568785325,-0.036165730330610914
-0.31838007841143695,-0.028414848735294106
-0.31447426313970894,-0.031116435070515536
-0.3131412133681091,-0.0320333411979331
-0.3828201027616287,0.05299387350845264
-0.18099197330790776,-0.08144307877180104
-0.17911759508841663,-0.08212628450469764
-0.19661366032332894,-0.07574694543794956
-0.2790152534010844,-0.04635574318272228
-0.2827486320862127,-0.045010527603694464
-0.28080472056524425,-0.04574670820080229
-0.30575836308838433,-0.03601682733176848
-0.3066624645714295,-0.0354755515011059
-0.3062103467922855,-0.03594070666511423
-0.3125213559982775,-0.03247030048883704
-0.3845206870788639,0.055868772370883196
-0.38808722962438946,0.06368184645232375
-0.3906298157733664,0.07031201718040621
-0.39290316665865066,0.07930762170578379
-0.3911186487086359,0.07149483441385422
-0.39521969510890304,0.08712049461664789
-0.1771116244370019,-0.08285707621655321
-0.17903918614736755,-0.08215488595593032
-0.1751334385639903,-0.08357802452824037
-0.17318090156951133,-0.08429051869393131
-0.17132481907370234,-0.0849684665800767
-0.31056840346162623,-0.03354209353001654
-0.309890439263349,-0.03398698938541981
-0.30861548061723204,-0.03479838540279496
-0.3983521239065457,0.09493349883414826
-0.16927584327030032,-0.0857155501109666
-0.16722130950430597,-0.08646393641128024
-0.1614260424431873,-0.08857509086648312
-0.16341703483259912,-0.08784974427632669
-0.3984383200995163,0.09514057307773423
-0.4022144008927776,0.10274662050951104
-0.1516991242856004,-0.092117326154815
-0.1498454297235427,-0.09279251416664447
-0.15951119366407077,-0.08927262585423912
-0.15755820676765928,-0.08998388454327233
-0.15563328332360438,-0.09068486772775458
-0.1654577445127131,-0.08710635582821137
-0.4062481671893902,0.11162559514278579
-0.4276739230437506,0.0949382177276857
-0.42968857385530446,0.09356632444498106
-0.4375021047993535,0.08716097375105969
-0.4196559537434449,0.11837442766206588
-0.42187181655322414,0.12001930313545822
-0.14574144229114847,-0.09428820567537474
-0.14779330530996423,-0.09354026867669465
-0.14193542013227695,-0.09567699820836326
-0.1439779326795428,-0.09493149478113501
-0.1536521651507082,-0.09140621566934878
-0.14087253615424972,-0.09606565016528057
-0.43653107331998053,0.07931464294776053
-0.437502129470853,0.0870076724007926
-0.4238537169239898,0.10275010302530331
-0.4375200263963443,0.08712730220574398
-0.4231111787192766,0.1183749837274948
-0.13994847558315002,-0.096405426782801
-0.4357636826482434,0.07150201934685384
-0.13803270191266107,-0.09710845572303653
-0.13608023620483217,-0.09782114564915395
-0.13415873587774918,-0.0985230534243492
-0.13025747681998354,-0.09994964834759776
-0.13217594566031032,-0.09924828539900472
-0.13022386074294973,-0.09996202101465322
-0.12837486995942854,-0.100640757305256
-0.4375055845276583,0.06553897836239708
-0.12632210872729716,-0.10139613182412766
-0.4453196447489388,0.05584485655863396
-0.4452768674032158,0.0558785501456261
-0.43811975511548135,0.06368989841940435
-0.124275999329854,-0.10215207762419984
-0.4492261338673169,0.054359360471001615
-0.45313247460831474,0.053795837199256624
-0.46049606151628025,0.05197474939074995
-0.4609453133124551,0.051691859151719935
-0.1237331019518108,-0.1023532624554559
-0.12047330269624604,-0.10355779361993678
-0.11847806543079087,-0.10429339520884451
-0.09897848055842723,-0.11134877857934077
-0.09699256139763549,-0.11206391599468077
-0.10690895807508247,-0.10850171073600867
-0.10875877284421578,-0.10783465923217594
-0.10279441018089339,-0.10997160255872523
-0.10397300850281135,-0.10954894987140584
-0.10102814327497792,-0.11060878127878446
-0.45703870098343796,0.05394294944941995
-0.4648521199199819,0.048233580010767316
-0.11461987209382511,-0.10570675587034586
-0.11657194345833896,-0.10499298303719468
-0.1126997837463356,-0.10640404117594682
-0.11071266666076197,-0.10712589103848376
-0.12251533720217583,-0.10280391250344145
-0.09506980858589276,-0.11276388648027226
-0.09312075945665149,-0.11348595868023159
-0.10484624026446761,-0.10923916551130286
-0.46506208750235867,0.048069234171981064
-0.0912051712645916,-0.11418707700788787
-0.08921675384461204,-0.11491388088379015
-0.087264967219946,-0.1156284356416454
-0.08541960267856082,-0.11629823066820434
-0.08335819806384695,-0.11704876887089553
-0.08131271383037994,-0.11779082502044803
-0.07551899013461778,-0.11990518424270397
-0.07749932981227074,-0.11918279878123542
-0.46875875635741726,0.04583268716525063
-0.0795486249462532,-0.11843472895277574
-0.07359330604228703,-0.12060517891690171
-0.07163937267647771,-0.12131383850427443
-0.06972539998220344,-0.12201084262578352
-0.06773517611912577,-0.12274123635249859
-0.06728557204705492,-0.12290877154986082
-0.06395444213775334,-0.12416113487070038
-0.06578936697394211,-0.12347220587966626
0.2961601637859093,-0.039591596623155964
0.2943776133249536,-0.04024114520684685
-0.4714335870588199,0.04416400951646454
-0.47266540593511863,0.04335014459377353
-0.06189064368074313,-0.12491463387037587
-0.0065840256971483255,-0.14494659376998648
-0.005308243467776803,-0.14540912059675393
0.27665078715487806,-0.046707169837350994
0.27469862051261046,-0.04742068366504941
0.27290614776641875,-0.04807423582868986
0.29227113286650835,-0.04100893337981282
0.29026518015855124,-0.0417397807688871
0.27868465332973524,-0.04596446717162212
0.2805559479888272,-0.045282416994183866
0.2980632007886184,-0.03889875207934554
-0.47657204933368746,0.040905997320889564
-0.059847419205163566,-0.12565508005210893
0.01295368431710281,-0.142605977618765
0.015011032847211347,-0.14185933618929863
0.010981513060969337,-0.14332373236529228
0.007109658695558022,-0.14472833121435127
0.00738321981355449,-0.1446292576593233
0.005230843156697432,-0.14540985340888118
-0.003382840769389622,-0.1461083841827805
-0.007186753240689289,-0.14472882533717607
-0.001628873691274467,-0.14674797653626956
-5.312348749635517E-4,-0.14715073267569195
-0.009032683240828,-0.14406313024781955
0.020889305152194376,-0.13973535689878772
0.02117630913468177,-0.13963204810984353
0.016601084601989943,-0.14128412942995752
0.01677784998997045,-0.14122070896837235
0.018816868970745502,-0.1404843806187092
0.2728954520487077,-0.048078142547512616
0.26493973188033876,-0.05099359816698207
0.263002698915893,-0.05170336792308737
0.262799010325428,-0.051778850236867235
0.2610433145339721,-0.05244238557834548
0.2604573334802537,-0.05267233931522758
0.299963419251785,-0.0382041310279595
0.2884257997062609,-0.04240989295164412
0.28641372002336246,-0.04314537537648482
0.2883658442620125,-0.04243177374194705
0.28447337088210206,-0.04385437709711324
0.28250870483491064,-0.04457052555042319
-0.47755472329871107,0.04025874456881338
-0.05808217787427751,-0.12629657256629284
-0.05733842622835349,-0.12657266960049737
0.009051601203498138,-0.14402540608756242
0.003304864624389665,-0.14610914703574202
0.0015500857243448698,-0.14674977498517627
9.08102937681542E-4,-0.14698482741651392
-3.983734641183006E-5,-0.14733303698992462
-0.015093535545282514,-0.14186713226741487
-0.013036348359760246,-0.14261444136532675
-0.01106350848269088,-0.14333140078545864
-0.009130996640891937,-0.1440278895496333
0.022728269275561774,-0.13907677934377485
0.023980221247773124,-0.13863051418502842
0.19073059834031525,-0.07803345122403692
0.18877765609711464,-0.07874483303826268
0.18764105244142237,-0.0791620278757636
0.27079489676700497,-0.04884938685381957
0.2687931410755209,-0.0495851660422109
0.2668922929154196,-0.05028116846741057
0.2603224107635187,-0.05273749664661323
0.26034290490710876,-0.05273265312038348
0.2610633683817273,-0.05249751067195825
0.3016418656491452,-0.03759244787489109
-0.4804786834494782,0.038519530450516405
-0.0560341462987434,-0.12705517443077147
-0.05406516470507056,-0.1278006626194997
-0.053041503377967016,-0.1281998348554964
-0.018901342867818784,-0.140497546404515
-0.020668669716604273,-0.13985668635027504
-0.02097313858725603,-0.139746759634969
-0.02281074456849557,-0.139084442980003
-0.015413487457220192,-0.14175187630897584
-0.016861543405443824,-0.1412317352989188
-0.0248624304106612,-0.13835726460511405
-0.024769830337239552,-0.13838993241744676
0.02468689638325562,-0.13838102439035505
0.026654155537815426,-0.13768551244556088
0.08535528251923435,-0.11634047420883689
0.08720064864084359,-0.11567068517410148
0.19243845144640215,-0.07741679173174161
0.19074633203011426,-0.0780767008354675
0.18878883977688468,-0.0787755753377853
0.2615027525841058,-0.05235445114653012
0.30331831050525154,-0.036972091220127706
-0.4843851335867014,0.03727625160967429
-0.05215861594269098,-0.1285612925962457
-0.05099581047139618,-0.1290384241298022
-0.027120813013161292,-0.1375764889758359
-0.026778665608352455,-0.1376934664988006
-0.042332254135439756,-0.13219327982241041
-0.04044304328393926,-0.13283529455469895
-0.04438498271658045,-0.13151154249776473
-0.04252720416986319,-0.13212811889796447
-0.03840456272596457,-0.13358094412075772
0.026691351157190707,-0.13767254781707064
0.028612981548955557,-0.1370137894739687
0.06571240192636704,-0.12347971626508435
0.06766550817647633,-0.12276878528186368
0.06387532930721058,-0.12416275995684806
0.05977524387059972,-0.12567577451326534
0.06181581258186668,-0.124928030878727
0.09114606451886095,-0.11424364670101567
0.09306434256597101,-0.11354991893988331
0.08915490023979981,-0.11496290258730402
0.08329405184925937,-0.11709149077980212
0.08124796269920105,-0.11783188194409194
0.07545211722022536,-0.11994041366344729
0.07743272514059724,-0.1192187641457651
0.1498220648913688,-0.09294728780616754
0.15167753892204386,-0.09227699085233668
0.14776451200073923,-0.09368012097216355
0.1457089231935181,-0.09441781731440103
0.19261004331412473,-0.07741109347176722
0.26500509248998083,-0.05117326492067939
0.26305513375929485,-0.05184750363641739
0.25916243739569356,-0.05335186382292499
0.2611256168048651,-0.05266862248026665
0.257282103827613,-0.05399997375188437
0.23767591885167882,-0.06116564540163137
0.2396285573319379,-0.06045342858753335
0.2358106833155042,-0.0618461207053804
0.35545379400608346,0.007243677247386426
0.3535775729559729,0.004968736126690116
0.3501872149049907,0.001063031702200203
0.35154683881310944,0.0028621324048149306
0.3036951436212161,-0.036838414875664326
0.35898725639046675,0.012780365622331799
0.35678052482638994,0.008874470711324838
-0.49219790956048415,0.035562061308047725
-0.05023665841166601,-0.129357761092517
-0.04833853153888222,-0.13008970253083707
-0.046343585601983484,-0.13081570588822122
-0.028410011771039054,-0.1371694540857666
-0.03726147958675951,-0.13403981504772244
0.02864661258611489,-0.13700229566391808
0.07352702955482518,-0.12064204703439241
0.07157450288110423,-0.12135457118831516
