"Plane Section: Position[X] (m)","Plane Section: Position[Y] (m)"
3.5,6.811008848313243E-4
3.2700000000000005,6.912187848352649E-4
3.04,7.187053236587931E-4
2.8099999999999996,7.576380157470081E-4
2.58,8.213344992597852E-4
2.3499999999999996,9.27544577504409E-4
2.1200000000000006,0.0010686055742863648
1.8900000000000001,0.001261918233648145
1.6600000000000004,0.0015620002204698876
1.4300000000000002,0.0020079121856720144
1.2000000000000004,0.0024829704013302222
1.1760000000000002,0.0027440397885324314
1.1520000000000001,0.0028409083971513397
1.128,0.0029461247316722337
1.104,0.0030660792675986683
1.08,0.0032011446513181352
1.056,0.003342802556883304
1.032,0.003507476334727317
1.008,0.0037024995760742974
0.984,0.0039072119779825325
0.9742997928956998,0.0040000000000000755
0.96,0.004136769653642625
0.9359999999999998,0.004388649716332857
0.9120000000000001,0.004647643623329686
0.8879999999999999,0.00492216357951099
0.8640000000000001,0.0052161366359274024
0.8399999999999999,0.005538766786908469
0.816,0.005884204021486721
0.7920000000000003,0.006285229914901523
0.7680000000000005,0.00672488221670957
0.7440000000000004,0.007218607246928
0.7200000000000003,0.007768003763508471
0.6960000000000004,0.008357878289056488
0.6720000000000003,0.00914098362133443
0.648,0.010006516233272686
0.6240000000000001,0.010973539048064994
0.6053882266766408,0.012000000000000018
0.6000000000000001,0.012310379379716909
0.5760000000000002,0.0140590306675717
0.5520000000000002,0.016196168716865984
0.5280000000000002,0.01827310812850502
0.5040000000000004,0.019859877052986745
0.502878980795997,0.01999999999999904
0.4800000000000005,0.022727404423651724
0.4560000000000003,0.026403887362268404
-0.5032181310774795,0.019999999999997804
-0.504,0.019902350735870704
-0.48,0.022762387738235666
-0.45599999999999985,0.026304697040675153
-0.528,0.01831289380154797
-0.552,0.016237653801579252
-0.5760000000000002,0.014133158510775696
-0.6057120052524319,0.011999999999998394
-0.6240000000000003,0.010975928810516414
-0.6000000000000003,0.012333816146552773
-0.6480000000000001,0.009976125002604985
-0.6720000000000003,0.009141762513675615
-0.6960000000000003,0.008376182539858563
-0.7200000000000002,0.007734013630270585
-0.7440000000000002,0.0071896098978016
-0.7680000000000001,0.006700117038874444
-0.792,0.006260502020455449
-0.8160000000000002,0.005861760177934078
-0.8400000000000002,0.005511231938046368
-0.8640000000000001,0.005193489135833033
-0.8879999999999999,0.0048976355081581276
-0.9120000000000001,0.004615250667527224
-0.9360000000000002,0.004367849125637936
-0.9735510000114405,0.003999999999999738
-0.984,0.0039005831493789662
-0.96,0.0041290184771199945
-1.008,0.0037043742092768726
-1.032,0.0035227994412118753
-1.056,0.0033602764358898014
-1.08,0.0032159436430312196
-1.104,0.0030863349969641246
-1.128,0.0029674670225621792
-1.1520000000000001,0.0028563730184851246
-1.1760000000000002,0.0027548268129830994
-1.2000000000000002,0.0024973921033105495
-1.4299999999999997,0.0020158866943834706
-1.66,0.0015645860271183108
-1.89,0.0012662503596999135
-2.12,0.0010642279903303018
-2.3499999999999996,9.229166662310276E-4
-2.58,8.256187456605345E-4
-2.8100000000000005,7.616801101442221E-4
-3.04,7.160205152205268E-4
-3.2700000000000005,6.899220771442217E-4
-3.5,6.847238095424152E-4
-0.3016507569232268,-0.012985954591564859
-0.2999838558474853,-0.013592616457784335
-0.35156708110834617,0.0323541390354282
-0.35011726483383077,0.029580997176847597
-0.3539681510775201,0.03739400347086617
-0.35210614623684766,0.03348750866326819
-0.2944035289729329,-0.015625062334328952
-0.29618555953144765,-0.014976213460898238
-0.29229690265990843,-0.01639209244156114
-0.2902907606053647,-0.01712255061803441
-0.2883912658330853,-0.01781418634114186
-0.28643823231197196,-0.018525303814503
-0.2844970839717825,-0.019232110158381374
-0.28253216565315087,-0.01994756515219471
-0.2805791307489891,-0.020658692003542027
-0.30335183773552604,-0.01236509015831716
-0.29808482674447495,-0.014284558637517358
-0.34767458874213775,0.025674426035872645
-0.34766171153267234,0.025656457798760822
-0.34570882449417195,0.023846146402615485
-0.3455856833953483,0.023721026417457252
-0.355472355136793,0.03977865203415355
-0.35651014107530865,0.04130058766737035
-0.2787076198818412,-0.021340147605459457
-0.30341269680306265,-0.012342953870601943
-0.34449819922187097,0.02176775844301779
-0.342906820649304,0.01981442422805909
-0.34375608285024867,0.02092981238373123
-0.3580307052097803,0.045207037590141164
-0.2610488180404958,-0.02777006030071391
-0.25909579322950504,-0.028481214871496966
-0.2572272061580553,-0.0291616139438721
-0.27667307114296774,-0.022080973725394158
-0.2747200383358647,-0.022792106336007388
-0.2729273012606751,-0.023444931614799918
-0.27081397443231586,-0.024214376255317242
-0.2688100022577005,-0.024944062387956878
-0.26495487876666757,-0.026347781655196897
-0.2630164127311567,-0.027053611852549946
-0.3035431975476536,-0.012298110490917086
-0.3418032590324306,0.01863857862694507
-0.34106272346493954,0.017861056791429485
-0.33940727760911027,0.015907714154366818
-0.3398504142527543,0.016506802581338253
-0.3593583915672725,0.04911346215775114
-0.25518973172514203,-0.029903491379825613
-0.2532367068608893,-0.03061464580432998
-0.2514474751857484,-0.03126625389769061
-0.2669079140256133,-0.025636655778204412
-0.30365631289618844,-0.012260680937772423
-0.3378975868800794,0.014242610785196261
-0.33762598848820624,0.013954354974307435
-0.33540012681351644,0.012000937352008025
-0.33594468975459735,0.012509031453840231
-0.359377374513124,0.04914031432070336
-0.23574686264093989,-0.036983229833343664
-0.237612499684968,-0.03630385851015461
-0.24933065760175943,-0.03203695594233304
-0.24732924982253818,-0.03276571135292434
-0.2395655285004501,-0.0355927149371269
-0.3038282629267239,-0.012202812534913057
-0.33340724392207527,0.010047550356436447
-0.3339918144771258,0.010609253411306228
-0.36171798610712547,0.05302002237706637
-0.23175343697435785,-0.03843735441622748
-0.23370646642840157,-0.03772621259691872
-0.2299677370392364,-0.0390877020371766
-0.22784741437045847,-0.03985973775898982
-0.22584858288330178,-0.04058758344997655
-0.24542460081017148,-0.03345924539362398
-0.24347157800786934,-0.03417040548096675
-0.24153581425859214,-0.034875292736635
-0.30398567563300327,-0.01215212228962388
-0.3320389871640581,0.008344608137809607
-0.33183877055879357,0.008094219152525308
-0.4062088802624018,0.041307120921859876
-0.4055817732198671,0.043260163501030915
-0.40531545834610744,0.04521325350891049
-0.36328276557717987,0.05567453254380696
-0.3641940721089199,0.05692659791001961
-0.21426661215172277,-0.04480505646716215
-0.216129288932787,-0.04412672952596859
-0.22394136307077345,-0.04128204229297022
-0.22198834097460848,-0.04199320431961201
-0.22005529315340877,-0.04269716489167574
-0.21808232067127922,-0.04341559398056077
-0.30416936346207324,-0.012093962339853475
-0.3300861237607023,0.006354503168151393
-0.32986837080479253,0.006140835112521297
-0.32783817505868007,0.004187443211905588
-0.3281332408380469,0.004512882366654437
-0.4062534102596714,0.041264427827930016
-0.4101597456562963,0.040615068882370334
-0.40820656555412255,0.04103410503996526
-0.40516533456472614,0.045213233774066275
-0.405138310439454,0.04521323022155205
-0.40510921850143033,0.046619476465238535
-0.40400737642769724,0.04911933158594273
-0.3671880278602493,0.06318839313627031
-0.20848812668843625,-0.04690937997729358
-0.21027025368234842,-0.04626030084739965
-0.21222327936275104,-0.04554914866433647
-0.3043578797481506,-0.012037705722800131
-0.3261803482422613,0.002744845475809579
-0.32558306142328786,0.0022340217442260116
-0.3231472992961357,2.8057652901294027E-4
-0.3242274291065998,0.0011786985278696154
-0.41246744866332563,0.039354818638537285
-0.41211297322794704,0.03983493040746417
-0.40304844689806474,0.05302545556154728
-0.39453278822778226,0.05550428229616843
-0.39355798244581947,0.05693045800591075
-0.398439233677382,0.054017745747313904
-0.36837156252273073,0.06473964713848865
-0.20692679525125324,-0.047477958826075764
-0.20436825466982078,-0.04841037388156772
-0.20636429778547155,-0.04768286739124754
-0.30457714846578166,-0.011972956638016277
-0.320712534798103,-0.0016728685550549533
-0.32227451849470856,-4.5228912427563094E-4
-0.41406638188960654,0.037677232704619354
-0.40234551397801344,0.05378750432975869
-0.3927899296342431,0.060836607073628354
-0.3749232145140116,0.07255300846746816
-0.2024585818943678,-0.04910609307590405
-0.20050579111135045,-0.04981789037032544
-0.19857583787361327,-0.05052194240312287
-0.1933687271719861,-0.05242019132173183
-0.1946476385564774,-0.051953885886199855
-0.305005698932837,-0.011834681578873118
-0.3054357315920083,-0.011682702649245475
-0.3054929548019579,-0.011664061212448082
-0.3203215953244655,-0.0019877448258227397
-0.31836865394595093,-0.0033846894635626464
-0.3180537901287517,-0.0036263430829233984
-0.3153189730702154,-0.0055798276110460105
-0.31641571435750293,-0.004795251229806456
-0.4142809448361444,0.03740193201869206
-0.39322158988730216,0.0647429138522012
-0.3749992856604807,0.07263837206787727
-0.18488411613567585,-0.05551405739436739
-0.1828906679213279,-0.05624068115630096
-0.19074239870380066,-0.05337841894087764
-0.1887897781559566,-0.0540906837613489
-0.18701152693737122,-0.05473919901185231
-0.19660044272445654,-0.051242125351626935
-0.1927882632470045,-0.05263205923133879
-0.30561590114256765,-0.011584613838067578
-0.3144627743029676,-0.00620226746905358
-0.3125098093581044,-0.007419941929080799
-0.41626132755354767,0.03544906733727922
-0.4160197689448907,0.03568389560630623
-0.3945311894404341,0.06766632429855533
-0.3950615699043419,0.0686494057644719
-0.3828108361017105,0.0798622186501263
-0.17709825435590443,-0.05835183806771467
-0.17902566215288834,-0.05764922508250528
-0.1731670765315445,-0.05978403124457091
-0.17511999136117418,-0.05907257462605751
-0.1713103708106905,-0.06046026770268497
-0.1809784478890353,-0.05693741392759177
-0.31234297756928475,-0.007533343843796577
-0.30575478562561326,-0.011521661545366197
-0.30665087462056095,-0.01076942188417371
-0.3061582518360905,-0.011440406903948187
-0.418615054579621,0.033496251734642
-0.41797310554859757,0.03407434561804665
-0.3984368330638316,0.07227931309858589
-0.38349047498054994,0.0803666347625768
-0.1712820179794396,-0.06047060544137828
-0.3105568430512484,-0.008627255662548898
-0.3091300480992512,-0.009486891223210404
-0.3086038750624548,-0.00982177480224566
-0.4217342062219747,0.03154353675254827
-0.41992641175853346,0.03269600246674721
-0.3986981045358406,0.07255613384669127
-0.3906226561223166,0.08503536368861048
-0.3968819729617636,0.08818089523819325
-0.39843463035008336,0.08903544836786094
-0.1692616105648053,-0.06120794330999302
-0.16720778301730604,-0.06195826915706129
-0.1614128251022398,-0.06407027270881453
-0.16340377450059443,-0.06334480802125764
-0.42187969914889517,0.03146082059362337
-0.4062485064171426,0.07856816233250166
-0.4062468142237614,0.0914407479134157
-0.15168621291263829,-0.06761334831912091
-0.14983241837861305,-0.06828826178803936
-0.15949804327302564,-0.06476799158655444
-0.1575450857120871,-0.06547933084977813
-0.15562029533524474,-0.06618067948794182
-0.16544445233157817,-0.06260133208044064
-0.42773928795659055,0.0298347616120489
-0.4257861436381781,0.029981589221277572
-0.4238329544840682,0.03046948385913354
-0.4095169014798527,0.0803700561223635
-0.4140593013548546,0.09153915567593424
-0.14572804006087764,-0.06978287989111294
-0.1477801404965212,-0.06903559485991276
-0.14192128718361574,-0.07116966584620352
-0.143964233615347,-0.07042535387750141
-0.15363930337400566,-0.06690237404752152
-0.1399329816905288,-0.07189435718438926
-0.42969242724433343,0.029726202525451117
-0.4140602353276318,0.0844343858303539
-0.4218722238813397,0.0883254924362486
-0.13801601361181992,-0.07259410629624768
-0.1368212184379634,-0.07303077294306372
-0.13020759361328293,-0.07544882908954706
-0.12835777154432798,-0.07612528281752647
-0.43043328495672145,0.02959155529175009
-0.42187225921245974,0.08805672713343286
-0.42227439541052575,0.08818423325361277
-0.126302912137369,-0.07687489564446355
-0.13606422532312998,-0.07330865679492464
-0.13414313918437726,-0.07401170225765598
-0.13215992942363947,-0.07473578227916133
-0.4374262566729349,0.0276393495509936
-0.4355519779013214,0.028390357582993915
-0.4335987797879089,0.028946405994839268
-0.43164559631709754,0.029391067540840064
-0.12425352801643472,-0.07762184877587575
-0.43750520600105536,0.027606201975778843
-0.44336468722416916,0.02679854340638445
-0.44141153995908344,0.026967786496654086
-0.4394583914381162,0.02714658310445816
-0.12248994674160278,-0.07826566751122001
-0.12169911896867072,-0.07855551598899588
-0.12044737880679772,-0.07901808447731846
-0.11845115552252175,-0.07975097884334575
-0.44531781570350537,0.026772204317769548
-0.11464281697051319,-0.08115259681066103
-0.11654493388047284,-0.08045029338900893
-0.09847126976376641,-0.08704096623921335
-0.09698526370916966,-0.08757535742607676
-0.10689909893644332,-0.08400612146192861
-0.10874273244209498,-0.08332209454955114
-0.4472709440694528,0.026746727765167604
-0.1145951904091526,-0.08117045967993952
-0.1126781297486687,-0.08187605993289021
-0.11069301443394303,-0.08260340722659396
-0.09506096286859142,-0.08827107646259069
-0.09897238203922733,-0.08686351400218595
-0.09310659171067315,-0.0889785334881704
-0.10484107220528188,-0.0847564584963856
-0.10279336197527014,-0.0855002089292378
-0.1010260948539426,-0.08613464021944991
-0.4492240977421908,0.026528741423732124
-0.09118829265116668,-0.08967220710446008
-0.0872452372053206,-0.09110573531470757
-0.08919803171496782,-0.09039394825493383
-0.08540171635818035,-0.09178059360270122
-0.0833450574566966,-0.09254416520612724
-0.08273350974108923,-0.09277138546297325
-0.06405876538066627,-0.09957121681937407
-0.06392754034226458,-0.09961874189777108
-0.4511772532446267,0.026296836441871647
-0.08130368999017844,-0.09329752722995524
-0.07749079001020837,-0.09469083060475716
-0.07551080209824917,-0.09541418224237563
-0.06385433279595001,-0.09964565463083715
-0.06577132401790008,-0.09895414073421781
0.2943880852784536,-0.015719774012874204
0.2961701884347215,-0.015069106791192494
-0.45313041386474484,0.02602600109617291
-0.07953977930858365,-0.09394192069386041
-0.07358613273943512,-0.09611696363554446
-0.07163456033950642,-0.09683210704117262
-0.06972127629816184,-0.09753100245207715
-0.06772749265965974,-0.09825162023548673
-0.06186581871603024,-0.10037794477144217
0.2649445495796989,-0.026456660527824048
0.26438861162968796,-0.026660079085665526
0.2610422978431528,-0.02788940899340294
0.2590898723730738,-0.028602211138716083
0.2572222392196583,-0.02928523236045634
0.27666021427867477,-0.02218290376691362
0.2747074330494693,-0.022894728072142063
0.2729150294354985,-0.02354847013586083
0.29997272234976086,-0.013681307866724637
0.2982008021468814,-0.014327655246166261
0.29228132615019303,-0.016486778105313737
0.2902753797395003,-0.017217639557520488
0.2864232397667399,-0.01862136470012695
0.2883761798602219,-0.017910005859372205
0.2844821250987699,-0.01932826203325459
0.2825175260148414,-0.020044594427894455
0.2809310230757007,-0.020623100470909414
0.28056493399757354,-0.020756938801339896
0.2786941688818375,-0.021440444380000125
0.29807243110381937,-0.014374632239016099
-0.4541423697900733,0.025688421986667168
-0.4550836240867471,0.025377842136009583
-0.05983139815401429,-0.10114256932734061
0.012969890253410082,-0.11810034795780891
0.013145710666423723,-0.11803678902404316
0.010996659356291787,-0.1188151908526075
0.005246256529626618,-0.1209021824806612
0.005494171834996762,-0.12081236199315272
-0.004991027726870795,-0.12101211219679192
-0.003368456241809631,-0.12160064077337973
-0.007173716408181232,-0.12022462151470484
-0.00529428572380516,-0.12090243975387574
-0.0016143175117991362,-0.12224025708025939
-9.569826471762005E-4,-0.12248098511411054
-0.007406166293023797,-0.12014093523786655
0.01679602725706838,-0.11672049596861091
0.016951339003038513,-0.11666455066177911
0.2708018176635091,-0.024318231205871614
0.2687982891512853,-0.02504913700632618
0.26689681398983844,-0.02574341569292123
0.26300837896215706,-0.027168800121298922
0.25518625138731865,-0.03003119608386232
0.253439748889311,-0.03067125306318254
0.30165062173278473,-0.013070086400337362
-0.4570368192864591,0.024843958348803902
-0.058945385573437106,-0.10147471573348282
-0.05416970483669738,-0.1032136323684333
-0.054039100931170675,-0.10326057426624882
-0.05211027369546825,-0.10396002504422935
-0.05015793170316562,-0.10467305487679557
-0.050043147896036345,-0.10471619062238068
0.015029023688935812,-0.11735861143762549
0.009066910308355373,-0.11951732233289651
0.007125591987639339,-0.12022204539417464
0.003320011692962949,-0.12160082635890854
0.0015649796959906488,-0.12224067733601651
0.0010566051826141093,-0.12242684357027582
-2.4977459465896606E-5,-0.12282485845595319
-0.010277232650192446,-0.11910785683323719
-0.009119163922363466,-0.11952692106154836
0.018836695023804372,-0.115988699005385
0.18288982260010855,-0.05637564471644614
0.18396794071458208,-0.05598819706854768
0.17713824796904468,-0.05847298523679102
0.17902371604756825,-0.057781164324215845
0.25323493943569997,-0.030747058847695477
0.25145033210685513,-0.031411377701555145
0.24733822423786905,-0.03292765010514076
0.24933665719074055,-0.032190717863756775
0.24659344772743633,-0.033203699338769474
0.3033283865899552,-0.01245276233558595
-0.4589899915739315,0.02448436893569163
-0.0580738707056483,-0.10180524678839947
-0.0560210514955934,-0.10255070115339204
-0.04825032633069061,-0.10537896830024493
-0.04626382207623384,-0.10612815547089252
-0.045214900967324986,-0.10653667700214481
-0.0443296197252279,-0.10689100317896086
-0.04251014126473883,-0.10761276032237807
-0.014899346018294204,-0.11744335460956112
-0.013025479267091364,-0.1181160745708699
-0.011051064296406947,-0.11882871288290622
0.02002490089865372,-0.11556481899080823
0.020913381039658844,-0.11525135598515404
0.0223249149383394,-0.1147557684730765
0.08537466735017527,-0.0918435747392847
0.0872209859571348,-0.09117640358051296
0.18703267678270297,-0.0549346173549983
0.18710411730019255,-0.05490961242387476
0.1848948949494327,-0.05568097029772016
0.18097569199123248,-0.05706712660992881
0.1778389278978273,-0.058280486321322725
0.24543953864547152,-0.03363757542662127
0.24349295557025263,-0.034366435987235655
0.2418482122938993,-0.03499254080883589
0.3514983568735945,0.033395014822326874
0.34922343859233007,0.029489063842843985
0.3471646978740627,0.025583084445279767
0.3476508639059202,0.026184626830554225
0.30348409365567686,-0.012396368745057762
0.3515580725862395,0.033477091289903727
-0.4609431541337041,0.02419877854679911
-0.02258536468728798,-0.11471409429573809
-0.02097294919977911,-0.11527772309421416
-0.01833616296756117,-0.11621969026681908
-0.016855849604453618,-0.1167475807946788
-0.03259992784952457,-0.11119628565241169
-0.033511102891318874,-0.11089189766346255
-0.04241056303433939,-0.10765143412791954
-0.0150857695722375,-0.11737728648632001
0.02275814044535659,-0.11460870650549906
0.023957482933246767,-0.11420342095985667
0.06573259197346605,-0.09898503057538853
0.06768537766753377,-0.09827321854228113
0.06389019741226006,-0.09965344517754014
0.05978035379359528,-0.10113963664746954
0.061823650171389105,-0.10039939071676365
0.055970879880688815,-0.10255018267962775
0.05801752962320744,-0.1017877721430811
0.05492803540451027,-0.10293567214424221
0.08903242874447323,-0.09052776505184612
0.08331323420258974,-0.09259403468833746
0.08126682587989688,-0.09333354889717228
0.07546897419207803,-0.09543656634983813
0.07745044075487476,-0.09471727698673824
0.1418024777643041,-0.07139131696239052
0.13994112900503392,-0.07205405118114637
0.1875092467076767,-0.05485585281175555
0.17318532287441535,-0.05997147325402165
0.17349615494870796,-0.05986047992329093
0.1713260767209476,-0.06064072740099155
0.16927715375698782,-0.06138795719759097
