"Plane Section: Position[X] (m)","Plane Section: Position[Y] (m)"
3.5,1.8808515847555673E-4
3.2700000000000005,1.903357242808031E-4
3.04,1.9739894186967632E-4
2.8100000000000005,2.0837807159110842E-4
2.58,2.2425711002675686E-4
2.3499999999999996,2.5298429329322135E-4
2.1200000000000006,2.909182571106565E-4
1.8900000000000001,3.40130897975199E-4
1.6600000000000004,4.167562304653661E-4
1.4300000000000002,5.310863467383331E-4
1.2000000000000002,6.506946905248043E-4
1.1760000000000002,7.147864798938129E-4
1.1520000000000001,7.376821434956294E-4
1.1280000000000001,7.657938879330653E-4
1.104,7.970872123763688E-4
1.08,8.288660393081857E-4
1.056,8.617533605420874E-4
1.032,8.956473636536377E-4
1.008,9.344072399300552E-4
0.9840000000000001,9.746584220958321E-4
0.9600000000000001,0.001015107430302069
0.9359999999999999,0.0010616283630478303
0.912,0.0011124346979702162
0.888,0.0011654652767873212
0.8640000000000001,0.0012236729726091376
0.8400000000000001,0.001288381522154827
0.8160000000000001,0.0013576309738745785
0.7920000000000004,0.0014354635196210503
0.7680000000000007,0.001519097683519286
0.7440000000000005,0.0016118967762397461
0.7200000000000005,0.0017182704978930727
0.6960000000000006,0.001838929471410419
0.6720000000000005,0.001979398069477589
0.6480000000000005,0.002136502273476981
0.6240000000000003,0.0023218066489749632
0.6000000000000003,0.002567090518534352
0.5760000000000003,0.0029294600424407085
0.5520000000000002,0.003491947379444152
0.5386400864986942,0.004000000000000446
0.528,0.004431592922322257
0.5040000000000001,0.00518459129904154
0.4800000000000001,0.0059139157435906305
0.456,0.005075777256223199
-0.4800000000000002,0.005910426723901968
-0.456,0.005088157346673642
-0.5040000000000003,0.0052540054388539245
-0.5395922120540948,0.003999999999999112
-0.5519999999999998,0.003505551626630474
-0.5280000000000001,0.004491490330286658
-0.576,0.002950338778091472
-0.6,0.0025884120449047197
-0.6240000000000001,0.0023287043898920024
-0.6479999999999999,0.002137173814369361
-0.6719999999999999,0.001984592683237069
-0.6960000000000002,0.0018406693091529555
-0.7200000000000001,0.00171957379869594
-0.744,0.0016147119481748308
-0.768,0.0015184984789957127
-0.792,0.0014347698809794732
-0.8160000000000001,0.0013576292785892014
-0.8400000000000001,0.001287206497324794
-0.864,0.0012232918191138619
-0.8879999999999999,0.0011652393924433682
-0.9119999999999999,0.0011110222064175045
-0.936,0.0010611931227191484
-0.96,0.0010142522138412787
-0.984,9.72710097740978E-4
-1.008,9.332839839769024E-4
-1.032,8.960459743253433E-4
-1.056,8.610000277531479E-4
-1.08,8.25816019804245E-4
-1.104,7.947674655024443E-4
-1.1280000000000001,7.64133148933036E-4
-1.1520000000000001,7.417549627632245E-4
-1.1760000000000002,7.168925575956452E-4
-1.2000000000000002,6.48302634030421E-4
-1.43,5.301019768879257E-4
-1.6599999999999997,4.1625826642243443E-4
-1.89,3.409222855724511E-4
-2.12,2.8936767150063625E-4
-2.3499999999999996,2.525568045714183E-4
-2.58,2.250709382147964E-4
-2.8099999999999996,2.0839109952132504E-4
-3.04,1.9776448577801928E-4
-3.27,1.9056815531652072E-4
-3.5,1.8835059956448183E-4
-0.29228582524395574,0.02709252557255217
-0.2902794819812077,0.02636261664863767
-0.28642652059448725,0.024961052782751073
-0.28837977847617785,0.025671553986575772
-0.2844851060674378,0.02425497762995398
-0.2825198762313747,0.023540378352308537
-0.2805665440276195,0.02283006816142575
-0.30164460412435107,0.030493488183681458
-0.299974884853651,0.02988900775342248
-0.2610351302465573,0.0157217243206351
-0.2590820388757844,0.015010752567686384
-0.2572133930238291,0.014330514946373524
-0.27869479947860515,0.022149254461730362
-0.2729140721328665,0.02004559314906683
-0.27470688029190266,0.02069822318811383
-0.27661284214219395,0.021391907979548475
-0.2708006394167797,0.019276439373670396
-0.2687965842069212,0.01854698131997806
-0.26300279093505874,0.01643799149247657
-0.26494132113674196,0.0171436454424284
-0.29426425488996544,0.02781219223717957
-0.2943927180233422,0.027858855155287354
-0.29617501715770417,0.028507114214602995
-0.3021726423216359,0.0306861407101199
-0.2980746807442781,0.029198295002441397
-0.25517586259266545,0.013588791320657805
-0.25322277696852935,0.012877803781844967
-0.2514334945155674,0.012226335136315901
-0.2766600174282543,0.021409069224181287
-0.266894421613711,0.01785459218088676
-0.30328211789688253,0.031087335092734862
-0.2357324325380871,0.006510593635396852
-0.2375981331008491,0.007189790500963411
-0.24731515156877693,0.010727200659774295
-0.24931661218041867,0.011455810958387281
-0.23955121107315672,0.007900799059153743
-0.30335599078512454,0.031112103172903804
-0.2317388975656174,0.005056769271865757
-0.23369197603690908,0.005767776459356697
-0.22995314274571135,0.004406572375411278
-0.2278327444357676,0.0036347444234041395
-0.225833856208404,0.002907054573348957
-0.24541044959903502,0.010033812073030363
-0.24345736918296954,0.009322810227785732
-0.24152154570396012,0.008618087024565197
-0.3033899302649995,0.031120318270251184
-0.3033839005052549,0.03111437005187303
-0.21425155367063747,-0.0013095071268256246
-0.21611429237697705,-6.31350259401639E-4
-0.22392659244849777,0.0022127164363044873
-0.22197351756948658,0.0015016993809135936
-0.22004039527496133,7.979433491808853E-4
-0.21806736575692962,7.967091387143556E-5
-0.3033977196411227,0.031103308120420267
-0.20847290519075917,-0.003413382935111215
-0.21025507925501907,-0.0027644330572030792
-0.20435266458987658,-0.004913364560622957
-0.20634895966553368,-0.0041865500401771045
-0.212208151391442,-0.0020534084679895374
-0.3034866002521862,0.031113479344281714
-0.20305312684023694,-0.0053865398483501385
-0.30368952212954364,0.03115948332177451
-0.18958701114162235,-0.010294182956790188
-0.19072596722940988,-0.009879099761433054
-0.20049008432917845,-0.0063205607264050405
-0.20244291644730797,-0.005608876813063848
-0.1985599341065763,-0.0070240719258105235
-0.19277213266440818,-0.009133566293636817
-0.19463166474875826,-0.008455823362547599
-0.3040739901522113,0.03126718177864329
-0.1848676247954656,-0.012014574316999586
-0.18287411607448667,-0.012741032038963597
-0.18877319370964396,-0.010590944642987618
-0.18699510708284933,-0.011239912241020635
-0.1965844595610516,-0.007744036971037758
-0.30467763422191807,0.03145461419521421
-0.17900904729235542,-0.014149403143551783
-0.17708151270765002,-0.014851668022927771
-0.17315030752534538,-0.016283786235310432
-0.17510318892186988,-0.01557223768846995
-0.17129373592833994,-0.016960391178239456
-0.1809619434087198,-0.0134378950317341
-0.3056691050535831,0.03179228148158457
-0.1692445344154594,-0.017706854988911676
-0.16718996897009472,-0.01845515436257636
-0.16296967879145546,-0.019992094000891858
-0.16338554456114748,-0.019840551097244453
-0.3057402316879021,0.031730612009381716
-0.16542630672552253,-0.019097306716338344
-0.1613947184730375,-0.020566354635356412
-0.3085915345412817,0.030965508674423194
-0.30663841328346336,0.030901842551697322
-0.3141246545357084,0.030095761977272827
-0.31249779440341385,0.030797989506483325
-0.15166867906915907,-0.024111004038548288
-0.14981499715243377,-0.024786226861856622
-0.1594799029978541,-0.021263981205972136
-0.15752714904722973,-0.021975879843456926
-0.155602413331683,-0.0226773787494854
-0.31054465807368564,0.030990511950716018
-0.3124978907655322,0.02916005005055513
-0.14571110281487792,-0.026282174506835124
-0.14776284784364468,-0.025533913150010676
-0.14190456929695267,-0.027669563202211783
-0.14394742591967707,-0.026925004426695313
-0.1536214447100292,-0.023399137513877056
-0.13991629198931899,-0.02839433212333438
-0.3107994121045322,0.028142441345540652
-0.3079432298951078,0.026189148309232226
-0.3085917880523602,0.02665639004826313
-0.13799899240585511,-0.029093170963825195
-0.1368566393582821,-0.02951053430305707
-0.13018984199505287,-0.03194588969712523
-0.1283398314417032,-0.03262182625663487
-0.31054483523106985,0.02797923453438194
-0.3066387476129976,0.025218991787113627
-0.30550949815805467,0.024235880126229327
-0.30298840002048744,0.022282606803353748
-0.30468571497596575,0.023648971508030497
-0.12628487433625904,-0.03337117100432954
-0.13604692649047284,-0.029806959616552355
-0.1341258792023544,-0.030510112523226784
-0.13214239247624912,-0.03123343213431822
-0.3027326815536469,0.022092299281456167
-0.3007796498609664,0.020506227081171086
-0.3005810250429638,0.020329340170960282
-0.12423571569509823,-0.03411874368601282
-0.11873858419725715,-0.03612467133255757
-0.12042725984365202,-0.035508645196130124
-0.2988266302425411,0.018714919668383546
-0.29848932973258413,0.018376092110413186
-0.12247206364807256,-0.03476236835859649
-0.11842961978266615,-0.03623764893231824
-0.10686549629390592,-0.04045965391114019
-0.10871249412422579,-0.039784866159063965
-0.29689176150186397,0.016422873120008955
-0.11457089182183733,-0.03764954341139352
-0.11652307580960075,-0.0369360791004858
-0.1126509870822779,-0.03834733257601865
-0.11066481809654355,-0.039071786382146534
-0.09894929001516203,-0.04334591315624939
-0.09696621711576167,-0.044068866956198716
-0.10480704620412482,-0.0412088282007066
-0.10276052322307154,-0.04195583962187398
-0.10099722695986682,-0.04260117696414936
-0.295894803205859,0.014469689464269393
-0.2968736420699069,0.016389104493318717
-0.0950462541861896,-0.04477650115065976
-0.09478254138123438,-0.04487329961433045
-0.295648558530907,0.012516549973993802
-0.09117573213627711,-0.046183530993608446
-0.09176156182041827,-0.04597304752969643
-0.08723175185918124,-0.04761451830674833
-0.08918455191900435,-0.046902746330063166
-0.08552937449341864,-0.048241793439119364
-0.08332691380132597,-0.04904015562441494
-0.08502863434634637,-0.04842408131025458
-0.08127870943130731,-0.04977473887276582
-0.09309527783602066,-0.04549328281122168
-0.07548340078804569,-0.05188474565766805
-0.0774641142448422,-0.05116338657811688
-0.06432811029425099,-0.05595983509972369
-0.0657464570602771,-0.05543166476012813
-0.2962645334704284,0.01056346120922659
-0.08538996886133285,-0.048294151155130124
-0.07951272834250732,-0.05041344541830389
-0.07355558003982289,-0.05257887067386469
-0.0716019811353754,-0.05328844824476155
-0.06968866919740002,-0.05398726748533592
-0.06769689100856276,-0.05471339313543547
-0.0639134473526731,-0.056125860406230285
-0.2968740250491172,0.009879318573553682
-0.29799513264284416,0.008610438019259276
-0.06185613171492833,-0.05689716812860225
0.25910436647468804,0.014925927701136023
0.2610570889650389,0.01563791316404806
0.25723609488777127,0.014244661572543438
-0.3016132394771557,0.006657525873831649
-0.3007804409859161,0.007058880807830395
-0.29882725366527685,0.008118134168500936
-0.06086677019497648,-0.05726150897566068
0.26496272299375717,0.017061364589643087
0.26302443525032954,0.016355044341163076
0.2551990106957031,0.013501711650747737
0.2532464556934201,0.012789265933914828
0.2514578030401978,0.01213606653896927
0.24830842393256497,0.010985805970293779
0.24934163179744517,0.011363588279539847
0.23763168641239588,0.0070741171249638765
0.23958328692989433,0.007789185747201674
0.23576736829499212,0.006391121282330572
0.2747282590943494,0.02061600575503404
0.27668159623537325,0.02132630216998418
0.272935619069902,0.01996291365271497
0.2787165128964034,0.02206611736589492
0.28058843254307164,0.02274644975659218
0.29620076286931474,0.02841620801319563
0.294417101920724,0.02776871905269577
-0.30468676081241225,0.005872102174783291
-0.3027336089604101,0.00632846843428652
-0.05981614858127396,-0.05764651721755836
-0.05599720956883993,-0.05903105022968495
-0.05784748063871827,-0.05836064166707536
-0.05401977292988996,-0.059753320644178334
-0.053913240613422016,-0.0597928500548741
-0.044283856315801354,-0.06331115120174027
-0.04244884044078874,-0.06399023929932768
-0.003624495799322976,-0.07799961417508758
-0.0033503503377389538,-0.07809837200537345
-0.0057124757740763255,-0.07725184390482508
-0.005278710883374369,-0.077406542011202
-0.0015948128211927572,-0.07873563790155544
-4.271925135305019E-6,-0.07931451237500331
0.23177687441514014,0.004928939960254235
0.2337283362932938,0.005644389560683914
0.2316078629260619,0.00486679480820449
0.27082180687331203,0.019194802705839523
0.2688177572513249,0.01846532928334353
0.26691567826240176,0.01777271038238342
0.24734158077649296,0.010631104408766249
0.24543847151031145,0.00993333906072801
0.24348670916556026,0.00921871513659645
0.24155224841604234,0.008510247133932274
0.2923095069076844,0.02700377831114654
0.2903027197110378,0.026275196513551202
0.28644908521115764,0.02487557389262202
0.2884026603770715,0.02558518799085199
0.28450742142145397,0.02417018560292231
0.28254196029337325,0.023456222380991654
0.29810577775380653,0.02910746773258734
-0.3085930411731409,0.00535615284582427
-0.30663990460200347,0.005552778734311224
-0.3164055426154786,0.00533186616676541
-0.3144524215053798,0.005265689133336207
-0.3124992983639246,0.005234040602110436
-0.05805065841982351,-0.05828732585766957
-0.05209629280721627,-0.06046745924801077
-0.05014928323513837,-0.0611951375467303
-0.048240084508524676,-0.0618966763405741
-0.046240923459089776,-0.06261110079441135
-0.04038756187037831,-0.06476025760468251
-0.038351347967791,-0.0655121345827523
0.009091551700021037,-0.07601716794942992
0.009619122938809094,-0.07582785171829355
0.011026351752061498,-0.07532887388685433
0.011506029468983778,-0.07515969593436994
0.007149004841437231,-0.07671865749539478
0.005114267060432748,-0.07745485416180571
0.0033428822802373842,-0.07809723257507338
0.0052694938541215375,-0.07739868129487643
0.0015867576854906498,-0.07873560054273902
-0.007162281723959172,-0.07673965077061945
-0.007462838334354038,-0.07663314452108319
0.08668920827325563,-0.04786962688475464
0.08724168014520865,-0.047665294962652746
0.22999392547321829,0.004271032490220074
0.22787553240473007,0.003493694152779696
0.22587877554815447,0.0027601472879313646
0.2161717366284422,-8.126760057040848E-4
0.21613284111272463,-8.270465715255543E-4
0.2982201101523461,0.029148848804481903
-0.31054617191632505,0.005258589070802339
-0.3222649111554127,0.005441844996103738
-0.32031178699569324,0.0054275047775789505
-0.3183586640432868,0.005392642859504332
-0.32421803630117463,0.005439424823492106
-0.03749419561453021,-0.06583241538983131
-0.032657085876637675,-0.06768694324172297
-0.03454811945819149,-0.06694765003758155
0.01291538086101976,-0.07467457234827053
-0.00881041875214068,-0.076170321237708
0.06575027044172504,-0.05546563685329203
0.06770392798748295,-0.05475622090424781
0.0639110357721199,-0.05614273516731608
0.059806738437413895,-0.05764416955787943
0.06184784986708982,-0.056897918787483
0.058042356344139,-0.05828802257290424
0.05599074267343845,-0.059036788797656066
0.05401347336373996,-0.05975951985164347
0.05287006342645176,-0.06017653580692531
0.08919578151303142,-0.04695709862791775
0.08540451616281888,-0.04835762377469693
0.07724450956054102,-0.05130658684874393
0.07549505198287511,-0.05194025495036829
0.16342793460326538,-0.019980513832381832
0.16143781210706132,-0.02070825121587157
0.16546860649649375,-0.019237021236932352
0.14986334782958136,-0.024942571374191123
0.15171360467920236,-0.024257936359981143
0.1672379743083505,-0.018610547594899312
0.16801610228026326,-0.018336901570093225
0.22397366332801566,0.002059896713144124
0.22202298692983527,0.0013422886291948057
0.2200923706298993,6.316461228618223E-4
0.2181219936677149,-9.391553172600236E-5
0.21431207404676061,-0.0014992860598867872
0.20854300474465354,-0.00362948546062416
0.21032191423601862,-0.0029715645063570495
0.20442986825907009,-0.00514898916408016
0.20642265679591387,-0.004412538672010493
0.2007532270240499,-0.006517381268478677
0.2025239247756993,-0.0058549566812000735
0.21227184276902653,-0.0022519013036209
0.30001291149725495,0.029795756576364
-0.328124289366155,0.005387441888272814
-0.3261711623855822,0.005421049746302021
-0.03659208861018724,-0.06617082196397403
-0.0325896225056764,-0.0677138430108162
0.013009967139173035,-0.07464253765905986
0.015004289065072132,-0.07395602782263602
-0.010608136403191613,-0.07555750424088427
-0.009117595629513378,-0.07606875183644017
0.0424396254931038,-0.06398843532225933
0.04427766377456714,-0.06331764911787525
0.040376184845035176,-0.06475251867429599
0.03834231820128607,-0.06551084935110063
0.016854971865899536,-0.07331451519859755
0.018898965566108664,-0.07259185541021566
0.07356844182130999,-0.05263770419558447
0.07161372075270514,-0.05334419760476626
0.06969794179099381,-0.05403623829852927
0.05208601178838606,-0.0604627220442745
0.050133788409654316,-0.061176079056096344
0.04822547265585714,-0.06188004639110948
0.04623271975207885,-0.06261207603178437
0.08933350155364772,-0.04690735901214425
0.09118934636164236,-0.046244437994631786
0.09310939368642372,-0.04555557098695463
0.08334507823344728,-0.04911356646797704
0.08129620351532274,-0.049846304087937165
0.07747723028774989,-0.05122292110280484
0.15952322614350162,-0.0214065087032431
0.15757140601220845,-0.02212097383109836
0.15564644704089545,-0.022821859542597994
0.1654934540602698,-0.019348539964166512
0.1655072142066865,-0.019343114465106805
0.14099470387602187,-0.028263723615035985
0.14197742602669042,-0.02789325121522142
0.15366438973086438,-0.023540626853666292
0.14982845649074453,-0.0249554515439124
0.1457725993522235,-0.02647464431260739
0.1478230727290142,-0.025722888000307004
0.1440129816043196,-0.027128628981686997
0.18889056712653982,-0.01093695722384348
0.1908366276582418,-0.010206664829607855
0.18738739838975155,-0.011521710966397359
0.19287676220116684,-0.00944455833355162
0.19473131832573043,-0.008753141262616528
0.16724864907420128,-0.01863988164147968
0.20057705869207515,-0.006583035434599758
0.19865128988836203,-0.007298587008292202
0.3017027332955508,0.03040434329233414
-0.3339836734402104,0.005233375693892888
-0.33203054505928203,0.005290786425291619
-0.3300774170214849,0.005342364698955836
-0.33593680247944463,0.005164775249022197
-0.02144945904373044,-0.07176693252916852
-0.02100254775203612,-0.07190486517480968
-0.018769882510418077,-0.07264875555464476
-0.01686630327531398,-0.073322126887154
-0.03069290973441495,-0.06850961512220176
0.015079810983894288,-0.07393021853409193
-0.015096775520426212,-0.07395334828091246
-0.013038201947303069,-0.07469686293747757
-0.011062410466149477,-0.0754057970320735
0.03658067217566195,-0.0661629841548573
0.03635822318921033,-0.06624767915480503
0.019713587118740765,-0.07230472232158215
0.020981852546930642,-0.07187154885855701
0.022387030194606777,-0.07142548433017037
0.10486112996161301,-0.041380940376448405
0.10280516931800793,-0.04210201797782045
0.1009666090960797,-0.04273645423867187
0.09897784015442632,-0.04344786107964317
0.09699070189226,-0.044159643722351344
0.09506473926313896,-0.04485079371376963
0.07952816434745494,-0.05047935376060721
0.11658996787499437,-0.037143385518112845
0.1146314600176963,-0.037839472906453495
0.11271309837576565,-0.03854150214998788
0.10692967644128133,-0.040659510780720484
0.1087723547173857,-0.03997285215882854
0.11663773080426246,-0.03712731406275897
0.11892225154007056,-0.036436425115422916
0.11853615260308473,-0.036553885908446083
0.163484221248822,-0.020135188427186267
0.1615188678970913,-0.020930990932471204
0.13999996165229608,-0.02864773421827516
0.1871253590944747,-0.011621315527873686
0.19668004967515976,-0.008030188222970764
0.18500492331195245,-0.01241534136465747
0.18301682499035787,-0.01315666704219113
0.17724252690115444,-0.015317606312900094
0.17916386988484287,-0.014598326809507687
0.3033932187275138,0.031044369067321796
-0.3398430640176056,0.00496876732118333
-0.33788993254886085,0.0050786640111768954
-0.01891035067362446,-0.07259960897936539
-0.022705061756609884,-0.07145030927188747
-0.030237053909043132,-0.06870838649437255
0.03454362506979806,-0.06695884450741507
0.03373753630316268,-0.06729499417344606
0.024403401099307206,-0.07083217607459816
0.02285285791222396,-0.07130101705383438
0.10102988476433712,-0.04271441288151138
0.12442398748789728,-0.034434323538624544
0.12637870798915166,-0.03365250852560001
