"Plane Section: Position[X] (m)","Plane Section: Position[Y] (m)"
3.5,8.565738879528486E-5
3.2699999999999996,8.714665747968134E-5
3.04,8.991932673244225E-5
2.8099999999999996,9.413920285543799E-5
2.58,1.0085431040119861E-4
2.35,1.1351302284993482E-4
2.1200000000000006,1.3000122530338384E-4
1.8900000000000001,1.501933527351464E-4
1.6600000000000004,1.8145635323060848E-4
1.4300000000000002,2.2626436343781804E-4
1.2000000000000006,2.6995043103853107E-4
1.1760000000000002,2.9118025549802523E-4
1.1520000000000001,2.989989744076702E-4
1.1280000000000001,3.113961109157033E-4
1.104,3.236279919723293E-4
1.0800000000000005,3.353071317571468E-4
1.056,3.4718863155495645E-4
1.032,3.5752069315591554E-4
1.008,3.7078778285732E-4
0.9840000000000001,3.8573860144999294E-4
0.96,3.9788416608263965E-4
0.9359999999999999,4.121691044423264E-4
0.912,4.3095371917955226E-4
0.888,4.4863262783551353E-4
0.8640000000000002,4.658296771179424E-4
0.8400000000000003,4.870117426548571E-4
0.8160000000000002,5.096155810746795E-4
0.7920000000000005,5.354202393635417E-4
0.7680000000000007,5.622539609853389E-4
0.7440000000000007,5.916514020182063E-4
0.7200000000000006,6.247217374306829E-4
0.6960000000000006,6.64611612610373E-4
0.6720000000000006,7.109675231401209E-4
0.6480000000000005,7.672295907551414E-4
0.6240000000000006,8.376073691185244E-4
0.6000000000000004,9.330278586909879E-4
0.5760000000000003,0.0010951982211924562
0.5520000000000003,0.0014136924882685007
0.5280000000000002,0.0019789767407436976
0.5040000000000002,0.0025347813902257105
0.4800000000000003,0.0033253833106121683
0.4560000000000002,0.0024268748476217036
-0.4800000000000002,0.0033429225589649988
-0.4559999999999999,0.0014795067781337948
-0.5040000000000002,0.0025787518802126964
-0.528,0.0020139142309338366
-0.5519999999999998,0.0014444317551393156
-0.5759999999999998,0.00111436668000229
-0.6,9.390880673721621E-4
-0.624,8.432681116301557E-4
-0.6479999999999999,7.707821702289466E-4
-0.6719999999999999,7.132201813112537E-4
-0.6960000000000001,6.653417814940903E-4
-0.72,6.255599740898473E-4
-0.744,5.92043792215445E-4
-0.768,5.6101707503006E-4
-0.792,5.344077360258657E-4
-0.8160000000000001,5.09095352000626E-4
-0.8400000000000001,4.8653892896462756E-4
-0.864,4.6600947760577977E-4
-0.888,4.472525863521E-4
-0.9119999999999999,4.290737745619058E-4
-0.936,4.1274442340661515E-4
-0.96,3.9764096427691146E-4
-0.984,3.8373735366140874E-4
-1.008,3.704609689939121E-4
-1.032,3.5843975582082477E-4
-1.056,3.4640899874666977E-4
-1.08,3.3325282411301625E-4
-1.104,3.209824810142122E-4
-1.1280000000000001,3.084643548967067E-4
-1.1520000000000001,3.0525689616095226E-4
-1.1760000000000002,2.95938418033218E-4
-1.2000000000000002,2.672400578919255E-4
-1.43,2.2510968665183893E-4
-1.6599999999999997,1.8098067758424475E-4
-1.89,1.5084472890161628E-4
-2.12,1.29557279132083E-4
-2.3499999999999996,1.1393569774448059E-4
-2.58,1.0095682795725877E-4
-2.81,9.3506880526941E-5
-3.0400000000000005,9.02926828860698E-5
-3.2700000000000005,8.744759028083944E-5
-3.5,8.591364690488032E-5
-0.20848371461041365,0.01627662870204779
-0.21026604382517727,0.016925152350062117
-0.20436242621440162,0.014779525763163277
-0.20635910250819942,0.015505292945271462
-0.2142642150536199,0.01837541648300082
-0.21612820446618952,0.019050137176003477
-0.21195424230879384,0.01753849616690235
-0.22005706602967479,0.02047185165233978
-0.22130945939931768,0.02092511750601142
-0.21808262586139415,0.019757454825685056
-0.2258593629126594,0.02255668703386188
-0.22644304096242973,0.022765896762899168
-0.18487354970992254,0.007688855821973277
-0.18287984156961903,0.006962945874901412
-0.18877972635126664,0.009110816095567915
-0.19073285982330113,0.009821672183570444
-0.18700137280407564,0.008462581598610033
-0.20049895175555232,0.013374786154839688
-0.2024522816220345,0.014085102669010863
-0.19856831908109843,0.012672600317609327
-0.19277930844683458,0.010566427716558177
-0.19463919839323907,0.011243187574763176
-0.2122196620281079,0.01763467668907593
-0.22394858077067933,0.021872015284267382
-0.2219921584976862,0.021170194843433767
-0.22786606174195229,0.023262918057562348
-0.2291679295069401,0.023716085759253443
-0.17708682044209845,0.004853457362814628
-0.17901446397106963,0.005555423014127212
-0.1731554644498134,0.0034217533321827752
-0.17510845435914926,0.0041330038441342925
-0.17129875334938194,0.002745531552168769
-0.18096748060390697,0.006266600105971222
-0.1965924138722671,0.011953818356858003
-0.22863913477145895,0.02346118808993458
-0.1692495046640909,0.0019991972697693426
-0.16719494674844693,0.0012508771517605365
-0.1613996174065045,-8.601067314930938E-4
-0.16339063278733826,-1.3482310251700292E-4
-0.21430978028344072,0.018250230634119378
-0.21617345685980782,0.018925810812869336
-0.21700390009592466,0.0192261876664128
-0.2278955216343119,0.023181979990368928
-0.22589880534897097,0.02244832293933173
-0.15948478223633972,-0.0015576792762562505
-0.15753186529228244,-0.002269130252920984
-0.15560704508540202,-0.002970397147305172
-0.16543137263854849,6.084826345844382E-4
-0.20852959609980373,0.016150573962070796
-0.2103129985876718,0.01679614890105094
-0.20612040273897161,0.015264805090003294
-0.20640826686959202,0.01537021884732927
-0.21226600986397015,0.01750734070944885
-0.2239917920379386,0.02175329670884634
-0.22203787419172408,0.02104459560937278
-0.22010328175099028,0.0203448786440324
-0.21812835202553027,0.019631826826091787
-0.15452059700833,-0.003366240089370391
-0.1498201405446291,-0.005080651231431729
-0.1516735374827722,-0.00440464539478469
-0.204417309776687,0.014628738740662055
-0.1457164309366939,-0.006577106687806205
-0.14776821802051665,-0.005828960681007404
-0.14191000205038165,-0.007964783090212089
-0.14395282803256776,-0.007220140004627161
-0.15362618348602136,-0.003692450035722957
-0.13992173560790744,-0.008689582001116334
-0.13019369284006913,-0.012236765096746385
-0.1283436429188324,-0.01291259384006036
-0.20056954559666748,0.013180836734185032
-0.20251506626769783,0.013912608221052409
-0.19864608279792234,0.01245895239042739
-0.22612749440248958,0.021820022952546494
-0.22677721902393577,0.022022662438196818
-0.1282863837257328,-0.012933483189293217
-0.1380044405623564,-0.00938843343516951
-0.1360516791989207,-0.010100311853816876
-0.13412981190829576,-0.010801212415015558
-0.13214634051437033,-0.011524574328729305
-0.19781024819679527,0.012146429618812104
-0.19400282049049225,0.010620139685172461
-0.1947588239203803,0.010914528568282079
-0.20866970656782277,0.015765634657587076
-0.2104489581800409,0.016422613706539083
-0.204533548456522,0.014309384753750225
-0.20653388620232402,0.01502509246772494
-0.21240769979163454,0.017118061999738678
-0.21342769829103012,0.017479729759609347
-0.2144572939826702,0.017844951702532037
-0.21632733076021965,0.018503057873417515
-0.2241944152371729,0.021196610013780794
-0.22222240634375762,0.020537612232161318
-0.22027452396825536,0.019874408015076457
-0.21828978874124894,0.019188295818411936
-0.2261483204161588,0.02176280559162813
-0.12628917364354555,-0.01366327903192487
-0.20066124686043307,0.012928896809971328
-0.20261975577538188,0.01362498441360521
-0.19669088431262444,0.011683280806314644
-0.198724175102298,0.012244401702267623
-0.19477271096513765,0.0108763753208781
-0.22427901278252252,0.020964186835638943
-0.22329233216148214,0.02054905258607375
-0.22384392919204915,0.02051805012163911
-0.22353635558870266,0.020368998739256697
-0.12424084068824136,-0.014413120428225651
-0.12043292367136768,-0.015804502821156502
-0.11843569056931881,-0.016534624887327307
-0.19673940791995603,0.011549967115186988
-0.21490932355895057,0.01660304627490692
-0.21672891061285104,0.017399757946206743
-0.2224477459271554,0.01991851457491652
-0.2205427797760557,0.01913740238274679
-0.21862433876380194,0.01826915355289857
-0.1145768488901763,-0.017946207929871925
-0.11652881871057319,-0.017232154826987436
-0.11265863647492894,-0.018648646437667206
-0.11238015351394491,-0.01875078855745715
-0.12247760150858067,-0.015057879635598905
-0.10687875832781266,-0.02077638880153064
-0.10872436094908103,-0.02009776751807972
-0.21446741034267253,0.01635699992309833
-0.11067502619499636,-0.01938013022907681
-0.10482163884212059,-0.02152921877461096
-0.10277605791196576,-0.022278818665827135
-0.09976429304478204,-0.023384335547678943
-0.10101335633537964,-0.02292579032400553
-0.21289326629549885,0.01492309427153184
-0.2122279501101867,0.014645287909183374
-0.09896832905286843,-0.02367852041832566
-0.09698848958711251,-0.024410357899037623
-0.06390805313114914,-0.03639134339150553
-0.06574814732751033,-0.0357166079838426
-0.21234699229008844,0.012692164005263358
-0.09506759488466082,-0.02511543333502038
-0.09311543172371964,-0.025828955254371996
-0.07549193014441624,-0.0321884782327579
-0.077475100390833,-0.031473868884229775
-0.06969489301191133,-0.03428466488933229
-0.07099633795379758,-0.03381369715462755
-0.06770198483332654,-0.03500768615726852
-0.06184425149495894,-0.03714483454831039
-0.21166301180794503,0.0107390327069675
-0.09119916658706669,-0.026528215294661407
-0.08725706590887648,-0.027964365980434752
-0.08921006591530595,-0.027253143209217394
-0.08541312941864418,-0.028638083582157605
-0.08334882199171059,-0.029380646623308526
-0.0795285848385133,-0.030737307940890808
-0.0802206062553362,-0.030497859609602884
-0.0813003862246743,-0.030114592634724355
-0.06182101613709742,-0.03715333686652964
-0.07356636855365627,-0.03288880901634594
-0.07161155391137218,-0.03359504625954672
-0.21101046746222402,0.008785901698141108
-0.059811514391335086,-0.037914092294045895
-0.2108230082181932,0.006832774971901041
-0.21094020427402327,0.008083673146050348
-0.05864682956126909,-0.03835029713958518
-0.21094021886867337,0.006498707099289368
-0.21142526245002397,0.004879655517483341
-0.05805156562392177,-0.038570125100836745
-0.056002321992720455,-0.03932540237670284
-0.054026985117210664,-0.04005344201456104
-0.05210282979531086,-0.04076572748223283
-0.05015623288230554,-0.041494542103394844
-0.04967366411700887,-0.041678782452414215
-0.04430703724216772,-0.04365514695466025
-0.04247336917323073,-0.044337939529656645
0.005273227550404397,-0.057684658635312476
0.005954345020633791,-0.05743918479234228
-0.002734962390030354,-0.05861327590972603
-0.0015954320175943406,-0.05902179493630188
-3.32749330634057E-6,-0.059598352193107884
-0.21306010005388482,0.002926545571276459
-0.2128933747813419,0.003141627393545489
-0.048252119295209034,-0.04221005269867234
-0.04625947007024141,-0.04294236591841547
-0.03456394499532888,-0.04727145022956458
-0.03453429986742675,-0.047282858196066306
-0.04041282867326419,-0.04510998829377948
-0.03837648350202641,-0.04586150608020786
0.0071550165030183814,-0.057010690976425055
0.008133720288109795,-0.05666447644141638
0.00334603908957208,-0.058382505588329234
0.0015890389415592523,-0.05902068477017911
-0.004259976547839305,-0.0580766970197521
-0.0033546722534309468,-0.05839397769291274
-0.005758073241056573,-0.05755916395296674
-0.005290585939919587,-0.0577221141674114
0.06770762682605314,-0.03504147530844901
0.06575390164870183,-0.035750705651597145
0.06391497819124282,-0.036428657982796694
0.059806639094854244,-0.0379189863499207
0.061850196037931036,-0.03717945523169464
0.05804121304979036,-0.038559970811882185
0.05598989421400084,-0.03930954682317331
0.054012122078571624,-0.04003089590716488
0.052084670343286524,-0.040734124899001176
0.0504564510081782,-0.041330066004793796
0.08541198407245956,-0.02865322802168955
0.087256252767424,-0.027980423040560025
0.08333027423907237,-0.029365315670130517
0.08128909717634596,-0.030101865651568332
0.07549289881853458,-0.032209427993845186
0.07747292228285108,-0.03148617304975429
-0.21594327007381478,9.734471199366554E-4
-0.21484651282820558,0.0017247584012052555
-0.021361844827263117,-0.05198373718915341
-0.02097479886651717,-0.05210895267269451
-0.018755499614383678,-0.052869969838096026
-0.016851139406331074,-0.053560778245381274
-0.036612651213331085,-0.046507632292034695
-0.03260177281880469,-0.04802755316171391
0.009104260933096082,-0.05632744335545774
0.00972299136174245,-0.056113790622871716
0.011377202668945386,-0.05555334165711484
0.011049001280688836,-0.05566631119090233
-0.007181198261642346,-0.05707326507041553
-0.007910585433875612,-0.05681730887948047
0.04244444342096952,-0.04427675934232888
0.04427935312129908,-0.043597377440338106
0.04037847708688158,-0.04503390144004617
0.03834055351507221,-0.04578108300609697
0.020963168047107246,-0.05209528855896623
0.02164253936748189,-0.05187959789640702
0.018884554245769743,-0.052827341049584496
0.016850545115091528,-0.05357743685662684
0.07356758758727487,-0.03291044662806381
0.07161530682463321,-0.033623645581572936
0.06970111686706995,-0.03432005285845788
0.05013311274184335,-0.04144931077843005
0.04822291095146931,-0.0421480948309864
0.04622986062824148,-0.042879306367423646
0.08855587665532742,-0.027525832619852298
0.08333586369598578,-0.029363333877537815
0.07952316164116757,-0.030740696590350156
-0.21679964800374016,6.197132722398017E-4
-0.21875278019625954,-1.6137889154792752E-4
-0.01888912493388199,-0.05282160902781651
-0.02193580296964688,-0.05186846744123484
-0.016613177813406207,-0.05364973354507534
-0.03068552479204987,-0.048769668502382346
0.013034281808842764,-0.054984457367629566
0.01509159176800116,-0.05423767673502791
-0.015091897318254957,-0.054220256605539474
-0.0130433467995048,-0.054991311098364706
-0.011073619513120529,-0.05571693889405181
-0.009136449376427914,-0.056401156441083726
0.0365765136704335,-0.046426639156010044
0.03452755995467113,-0.0471897779979494
0.03451573048966972,-0.04719427374942293
0.02249209392218348,-0.05166403347448363
0.09122057122156624,-0.026605316871338134
0.0931444891959625,-0.025927083340708503
0.08922031143736131,-0.027299584547386353
0.18891807454673054,0.008712411735671522
0.19087056705687128,0.009425028901061757
0.18714184148221197,0.00805835104482383
0.19291664676593806,0.010170798042621658
0.19477639916397194,0.01084793581333722
0.18501405336428245,0.007284529206422088
0.18302190955992756,0.006554321145530183
0.17723481931334645,0.004428537155037119
0.1791602629961156,0.005136547025324768
0.2266130166234964,0.022276630674154984
0.22603006590571026,0.02206938352374048
0.2144207271007007,0.017927105366521135
0.21628770752097282,0.01859360791021294
0.2086328823881528,0.015848496637363443
0.21041648227060267,0.016493529045030236
0.20450508147263127,0.014369287358719075
0.2065041109898645,0.015088588878807027
0.2006383117630848,0.01297360170972935
0.20259308587625566,0.013679950042932449
0.19870661194566963,0.012274347933242329
0.21237331310856428,0.01719422641161377
-0.22099117970178,-9.796313980975312E-4
-0.22070591180881713,-8.794877976672896E-4
-0.022049650831676308,-0.0519674888963474
-0.029555812248215324,-0.04923539129242968
0.03257069754230549,-0.04796047192636824
0.03064735613252806,-0.04868310005935522
0.030334976571467887,-0.04880953942480544
0.028736875917874882,-0.049511148360978946
0.02850137828925524,-0.04961735443422646
0.022794331985305623,-0.051694489901423786
0.09528829260792779,-0.02516914310320439
0.09510413958948392,-0.025234132861034805
0.12057207461040055,-0.01620511474327102
0.1226311723458891,-0.015498110913806932
0.11856774001511078,-0.016915725220135663
0.16156916087654094,-0.001344222128583784
0.16355693134724392,-6.1002289615427E-4
0.1655948364431083,1.4107151730470538E-4
0.19672994990343023,0.011557645434362593
0.17525875730811918,0.0037017530341058426
0.17330817483891,0.0029838879242255183
0.17145399946672946,0.0023006990667723323
0.16940736653881527,0.001547177820673028
0.16735562329020884,7.911242208218027E-4
0.18111133854785727,0.005853057363320153
0.23200883131833486,0.024016537302599023
0.23398817428596663,0.024655381331318997
0.23020096954053884,0.02342708047722948
0.2280492138098859,0.02274140879468674
0.2241179449352507,0.02138839082670973
0.2221602856946593,0.02068996954277268
0.2202227326065963,0.019998387345394684
0.21824543671301946,0.019291836998602364
0.23426716111143428,0.024746399018056246
-0.22656529767097908,-0.002059082401647364
-0.2246121695986429,-0.0017254380660924468
-0.22265904103973452,-0.0013389527427116045
-0.23047155178097925,-0.002505406857460843
-0.2285184250941691,-0.002322229699080018
-0.022951868847712033,-0.05182980200720857
-0.02876376069343424,-0.04956670876317896
-0.02688969669898662,-0.050356169888934585
-0.025361251855740133,-0.05097281997525967
-0.023224872676491048,-0.051750420683903994
0.026879327472217794,-0.05034599231485096
0.024900891622957146,-0.05112596605152225
0.02289473577451125,-0.051691140187607273
0.10492786945779824,-0.021839382422674407
0.1028789299640346,-0.022579754728662083
0.09765528903272544,-0.02444811047681578
0.09706251072229169,-0.024632025717748005
0.12438075870672095,-0.014815839670164251
0.12642581953403215,-0.014057007700790772
0.12847821877132617,-0.013300634815807087
0.13029005368125818,-0.01278105625823106
0.1147026443661373,-0.018310125488315666
0.11665755592075575,-0.017604154783195006
0.11278141722051095,-0.019004281071320663
0.10883609193863786,-0.02042304319620514
0.10698817068905485,-0.021095294266391406
0.1596577577901696,-0.0020512245477592463
0.15770866045656515,-0.0027731701509510496
0.1557894010123159,-0.003489715587187591
0.1401412117291887,-0.009310890771320857
0.14212803063609727,-0.008582114618196485
0.1551613805092797,-0.003728892964073063
0.15002287615994372,-0.005655964209324727
0.15186967773892163,-0.004961837181688256
0.14592994794813058,-0.007182042298800326
0.14797694231964065,-0.006420727977687711
0.14416925539347633,-0.007833072021289949
0.2320598411837368,0.023876384838793348
0.2339938698656475,0.024639732406963554
0.2302918274528323,0.023177443271488733
0.22819934521287794,0.022328914351543286
0.2262345082690711,0.021507666673381165
-0.23437780304923156,-0.002643120507392393
-0.23242467770689704,-0.0026059520695649813
-0.23828405300381955,-0.002638171111188474
-0.23633092807198086,-0.002645582262334367
-0.24023717796387634,-0.0026338244137087416
-0.02491809780988054,-0.05115492445053976
0.10111227837663704,-0.023215873784050812
0.09906066262208274,-0.0239505021073055
0.13822404273589553,-0.010010088592271621
0.13626897587700132,-0.010715632590194256
0.13434035263648952,-0.011397970871214025
0.13037511411380548,-0.012753516367837513
0.13234491437709062,-0.012088453224141923
0.11079233209129347,-0.019720722888642593
0.1538161819132744,-0.004232766728136215
0.2243725722951584,0.020688787885947323
0.2242140795868097,0.020613432512163608
0.21672437790112475,0.01739383156957209
0.21490765315588284,0.01658924874238509
0.21449800371149952,0.016366098066259764
-0.24219030295737815,-0.0026331097210192662
0.2224506940644348,0.01989205627222077
0.22054433512782612,0.0191147663955838
0.21862312617256735,0.01825411404263325
0.21288798158368127,0.014690834938034967
0.21279362803118224,0.014641374234858813
-0.2500028027977178,-0.0026157371301218394
-0.24804967776473627,-0.002612162064329039
-0.24609655275000852,-0.0026105716158889513
-0.2441434278576665,-0.0026222721541799016
-0.25781530325836355,-0.002665726819577169
-0.2558621779662571,-0.002634013286759856
-0.2539090528321382,-0.0026194571467791933
-0.2519559278036626,-0.0026163736214338353
-0.2617215542639754,-0.0027749173832800162
-0.25976842870042727,-0.0027137254951656543
-0.2636746798964422,-0.002843593706003637
0.21270241890090102,0.012688250074646747
-0.2656278055348892,-0.0029129194947307797
0.21185469069017257,0.010735132880597147
-0.2662352472533157,-0.0029323397827536605
-0.2851590555018361,-0.002909240663885228
-0.2841890653829361,-0.002932174460800896
0.21105441863246177,0.008782015249563506
-0.27344030694910937,-0.0030664666259668663
-0.2714871818505056,-0.0030557673320597166
-0.2695340565479552,-0.003022919550350439
-0.267580931104831,-0.0029748056308399606
-0.2890653044593668,-0.0027960114496394374
-0.287112179966044,-0.00285104512402756
-0.283205930915532,-0.002954176631355927
-0.28125280614666703,-0.0029792867221414623
0.21093479676857882,0.008194976535108828
