"Plane Section: Position[X] (m)","Plane Section: Position[Y] (m)"
3.5,0.0019662034533363434
3.2700000000000005,0.0019893820286961275
3.04,0.0020662607860495964
2.8100000000000005,0.0021768280435501275
2.58,0.002354891009610817
2.3499999999999996,0.00263262679767016
2.1200000000000006,0.0029880046698398397
1.8900000000000003,0.0034915811082810405
1.7533514677643396,0.003999999999999865
1.6600000000000006,0.0043537964946430575
1.4300000000000002,0.005775869865578319
1.2000000000000006,0.0072252783120446
1.1760000000000002,0.007988009114354742
1.1520000000000006,0.008628354128220514
1.1280000000000001,0.009330422353343023
1.1040000000000003,0.009856090714519126
1.0800000000000005,0.010333459019353595
1.056000000000001,0.010687199559074462
1.0320000000000005,0.011106487542694218
1.0080000000000005,0.011648456686644049
0.9915766316191028,0.012000000000000021
0.9840000000000005,0.012164399410091847
0.9600000000000004,0.012750062291529255
0.9360000000000004,0.013399237730462634
0.9120000000000004,0.01406813795858326
0.8880000000000003,0.01520010615075481
0.8640000000000005,0.016983882545381395
0.8400000000000003,0.018743751263547645
0.8171811056003966,0.01999999999999956
0.8160000000000001,0.020069887358102896
0.7920000000000005,0.021526709184146554
0.7680000000000005,0.022955856868849805
0.7440000000000009,0.024441236219889688
0.7200000000000009,0.026366711263094728
0.7024596118545394,0.02799999999999899
0.6960000000000008,0.028629343786605487
0.6720000000000008,0.031307804101278924
0.6480000000000008,0.03463972370023859
0.6404349229340583,0.03599999999999835
0.6240000000000008,0.038839473008610445
0.6000000000000009,0.04346557259528731
0.5979154162584313,0.043999999999997694
0.5760000000000007,0.04910294118295361
0.5657530488189699,0.05199999999999703
0.5520000000000005,0.055922258005938655
0.539722475277301,0.059999999999996015
0.5280000000000004,0.06462711306635166
0.5197426837018126,0.06799999999999554
0.508537627658824,0.07599999999999485
0.5040000000000002,0.08259665560082693
0.502992409456354,0.08399999999999416
0.49443246731048446,0.09199999999999312
0.4882242323389925,0.09999999999999257
0.48679174750500515,0.12166666666665965
0.4408900936336009,0.09999999999999215
0.4319999999999995,0.09213836656568922
0.4891214298950558,0.14333333333332599
0.45114769199942684,0.12166666666665889
0.4636342471631144,0.14333333333332596
0.4559999999999985,0.13421334590154307
0.49240606530413067,0.16499999999999299
0.46884661177249987,0.16499999999999282
0.47999999999999704,0.17562255697584
-0.5976459703293147,0.043999999999996466
-0.5999999999999998,0.04339558660836914
-0.565541503126594,0.05199999999999552
-0.5759999999999998,0.049058835666950074
-0.5394874175211725,0.05999999999999469
-0.5519999999999998,0.05584221938781943
-0.520028377782711,0.06799999999999391
-0.5279999999999998,0.06465525104359869
-0.6401508763932391,0.03599999999999699
-0.648,0.03460284522473689
-0.624,0.03877375225352532
-0.5091792463677999,0.0759999999999932
-0.5020796820614776,0.08399999999999247
-0.5040000000000001,0.08192174807610259
-0.4406031600687563,0.09999999999999049
-0.4320000000000003,0.09362737130644902
-0.6719999999999999,0.0312940789771472
-0.4930268725814275,0.09199999999999169
-0.45468644171040185,0.12166666666665746
-0.7016298595135386,0.027999999999997895
-0.72,0.026233979824638626
-0.696,0.02857004091358418
-0.4872979668873938,0.09999999999999098
-0.45600000000000285,0.12430036779998502
-0.744,0.024231589765990658
-0.4861313403061338,0.1216666666666576
-0.4722533611576481,0.14333333333332465
-0.7679999999999999,0.022592300736083537
-0.4859028162390585,0.1433333333333248
-0.47512554610036495,0.16499999999999138
-0.8133726492682453,0.01999999999999875
-0.8159999999999998,0.019836622856656154
-0.7919999999999998,0.02128205818705879
-0.4856043040797119,0.16499999999999146
-0.48000000000000864,0.17187821054181607
-0.8400000000000001,0.018616186455415178
-0.8640000000000001,0.017319352028445686
-0.8880000000000002,0.015625612054958396
-0.9120000000000001,0.01426855115579505
-0.9360000000000002,0.01339520754178155
-0.9600000000000002,0.012709249984658676
-0.9863183697488147,0.01199999999999959
-1.008,0.011439936337859506
-0.9840000000000002,0.012061851131074271
-1.032,0.010877480856872188
-1.0560000000000003,0.010433603672212743
-1.0800000000000003,0.010069788412887061
-1.1040000000000005,0.009633928839248011
-1.1280000000000001,0.009286812091078765
-1.1520000000000001,0.008845685468540001
-1.1760000000000002,0.0082801589357912
-1.2000000000000002,0.007395889218858591
-1.43,0.00581679286349347
-1.755920722812768,0.004000000000000094
-1.8900000000000001,0.003509361148538664
-1.6600000000000001,0.004357145102493271
-2.12,0.002990073431385994
-2.35,0.0026198766835558787
-2.58,0.0023667594087567086
-2.8100000000000005,0.002190501768446247
-3.0400000000000005,0.0020615438538137015
-3.2699999999999996,0.001989176683392702
-3.5,0.001976414898324824
-0.30168825713366265,-0.07715129712889565
-0.3000214063754175,-0.07775805651482157
-0.3516029080042985,-0.033235307493222344
-0.3503496178737283,-0.03458227436751492
-0.346562420469947,-0.03848918678619191
-0.3476973527386541,-0.0372079606608936
-0.3555084053546754,-0.028931509759657394
-0.3538856320830495,-0.030675405879328592
-0.35752720872113064,-0.026768518928876255
-0.2944411856587239,-0.07979077487505767
-0.2962231879401777,-0.0791418485489201
-0.29233460279044515,-0.08055792420587368
-0.290328501914262,-0.08128849547336255
-0.288429039424547,-0.08198021985288671
-0.28647603894755147,-0.08269142807320182
-0.2845349171294803,-0.08339830725243877
-0.28257002892300875,-0.0841138449406065
-0.280617026493714,-0.08482506097436004
-0.3033893585180676,-0.0765304280081361
-0.29812242402420575,-0.07845011005188651
-0.3457446027416158,-0.03935230154096695
-0.3447339346425191,-0.04044263160766577
-0.34287471865658947,-0.04239608180366435
-0.34379183301986926,-0.04138386163524583
-0.35941391880712653,-0.024719779483513442
-0.27874554120378303,-0.08550658681604656
-0.30343236441080057,-0.07651482180929012
-0.3418391010459343,-0.043631253946832725
-0.3412876614688627,-0.044349484400662456
-0.33949784372157443,-0.04630292245931325
-0.33988637060392957,-0.04588740543598911
-0.3611270117837616,-0.02286163928438107
-0.2610870457205694,-0.0919373408166512
-0.25913404451629074,-0.0926485602143014
-0.257265486872952,-0.09332904009996511
-0.27671101823112965,-0.08624748369459381
-0.27475801615106765,-0.0869587006873221
-0.2729653103872919,-0.08761161194537136
-0.27085202805487985,-0.08838117878412421
-0.26884809374829444,-0.0891109689074191
-0.2649930463160667,-0.09051489704273323
-0.26305461494012045,-0.09122082242062557
-0.30353752519643984,-0.07647931507616834
-0.3379336388936468,-0.04813630524256584
-0.33782464458117284,-0.04825634012204017
-0.3633194071491675,-0.020364474440342097
-0.36458323632452505,-0.018954784750941374
-0.2552280522641094,-0.0940710268988238
-0.25327505366605024,-0.0947822534531067
-0.25148583819370945,-0.09543390603065693
-0.26694603925137855,-0.08980365493864727
-0.3035888957388639,-0.07646481201741792
-0.33620348637902675,-0.05020974868311226
-0.3344609583807944,-0.052163178471052674
-0.3359809186672762,-0.050450867116511214
-0.36722482277008256,-0.015593368735522146
-0.3676832029088376,-0.015047992524960224
-0.23578553006611538,-0.10115171792692959
-0.2376511511079895,-0.10047230266346799
-0.24936906547892312,-0.09620473130010465
-0.24736770273787334,-0.09693361039007373
-0.23960414213216785,-0.09976105531144974
-0.3036718101394324,-0.07644050273645231
-0.33263682222686,-0.05411662253179609
-0.33402817254792105,-0.05261737960461862
-0.37033402956027933,-0.011141278850964106
-0.23179220029826497,-0.10260610585280194
-0.23374517388785127,-0.10189481062568924
-0.23000651949185938,-0.10325650598940453
-0.22788621892391353,-0.10402860240764633
-0.22588741977769858,-0.10475653690824552
-0.24546309693427498,-0.09762726308512319
-0.24351011401658376,-0.09833853269742153
-0.24157438439404422,-0.09904351366559525
-0.3037872987902325,-0.07640655338222377
-0.3320754112167409,-0.054696914782436594
-0.33075552182491075,-0.05607007659023541
-0.3711301164769226,-0.010125189822135127
-0.37331962634156823,-0.0072345066276005825
-0.2239802735879231,-0.10545119792321828
-0.2220273026901548,-0.1061625005420119
-0.22009424916186401,-0.10686644543613615
-0.21748032665408223,-0.10781844182017472
-0.21812131396807444,-0.10758497692012259
-0.30400172869387077,-0.07633812885552098
-0.33012263925597196,-0.05671567275247633
-0.3288460632785181,-0.058023535573369645
-0.3269112039550556,-0.05997699899895172
-0.3281698625625816,-0.058707370788414634
-0.37503553218245445,-0.005354567956465154
-0.2143058410407228,-0.10897508633934831
-0.21616843030701013,-0.10829651908943069
-0.3041673725204598,-0.07629272554975623
-0.32621708078530026,-0.060670000412967176
-0.3249380352188844,-0.06193046912463164
-0.32287931675588566,-0.06388395421246035
-0.32426429193696754,-0.06259219957957952
-0.3769295734571747,-0.0033276252089705863
-0.21030973510109344,-0.1104310241624767
-0.20852787994775382,-0.11108084974658375
-0.2064041680095186,-0.11185465833073995
-0.2044081081882213,-0.11258211886892205
-0.21226258974030618,-0.10971940229966484
-0.3043376553583809,-0.07625117993068062
-0.3223114859566228,-0.0644164423782633
-0.32035858101385284,-0.06567484354844455
-0.320125712815933,-0.06583756083174634
-0.37894088845510293,-2.44124167600404E-4
-0.3796391841614305,5.790987460190877E-4
-0.20071983125872783,-0.11392756396076005
-0.20249875357711952,-0.11327871169850812
-0.3049458082868841,-0.07604096156068421
-0.30552005677531435,-0.07582862663514076
-0.30546927431663407,-0.0758486461659054
-0.31840569046387757,-0.06701553902211296
-0.31757243437225763,-0.0677911324152644
-0.3154336518831995,-0.06974463150583124
-0.31645288036336844,-0.06881622376979417
-0.38284625373247005,0.004814832958710075
-0.18883025492652541,-0.11826413929326088
-0.19078305652818342,-0.11755237179022332
-0.1870521105649638,-0.11891294785486664
-0.1866134041187958,-0.1190728989779713
-0.2005461488373201,-0.11399101978083805
-0.19861628043490342,-0.11469530461829276
-0.19468859022903076,-0.11612864593157433
-0.1928290958814472,-0.11680649226965592
-0.30562628095051825,-0.07574797606688252
-0.3145000650565945,-0.07058714046942145
-0.3127550504628988,-0.0716982250076082
-0.38649392117243786,0.008392797719383187
-0.18492520860110978,-0.1196892034765234
-0.18293186618218324,-0.12041611766474541
-0.1966412466595998,-0.11541647979121888
-0.3057704046695052,-0.07567313592520272
-0.3066883596966616,-0.07513137029767658
-0.3062233723514842,-0.07560561742010602
-0.3125471583879278,-0.07183567343652142
-0.3906569109650234,0.015351984489011806
-0.17713987362283753,-0.12252843042670722
-0.1790669182352856,-0.12182482023355565
-0.17320881695578083,-0.12396095621839327
-0.17516183097079582,-0.12324977199882994
-0.17135203453994577,-0.124636982058042
-0.18101970916933957,-0.12111302343748079
-0.31059422753808613,-0.07294594467910966
-0.3096837581894822,-0.0736518871887459
-0.3086413662273903,-0.07445382280348815
-0.3911957835856541,0.016206120167419884
-0.39535320705922106,0.024019347396228408
-0.3984672294749728,0.027825864351092182
-0.40172261604845894,0.03183296148851977
-0.4062779098930789,0.03823044686665631
-0.41127691684046275,0.047459632719461776
-0.4073716156503218,0.03964644958537517
-0.16930272193001222,-0.12538314068837966
-0.1672481613727129,-0.1261314534123147
-0.16145284364868162,-0.12824246871935746
-0.16344395013540636,-0.12751743545020885
-0.41389708687522575,0.05527259109153232
-0.4529571937613667,0.1255919235537761
-0.4531375217087125,0.1262202099635317
-0.46460832560271814,0.15684396174729331
-0.46875600511575355,0.16348177198253486
-0.45721457679733796,0.14121766838440677
-0.15172609057145342,-0.1317851573125807
-0.14987282535199595,-0.1324615242862737
-0.15953788278380784,-0.12893969591299154
-0.15758481165094926,-0.12965072328794863
-0.15565984278103745,-0.13035158173371156
-0.16548466004635595,-0.12677404764527353
-0.41408735167633554,0.055717223615327036
-0.4178319752556322,0.06308577940024182
-0.4315369893437979,0.0943381768058963
-0.437516745924007,0.10206587155382307
-0.4436579681506221,0.10996529693400076
-0.14753649625218906,-0.13331580240571758
-0.14782150032539682,-0.13321147388199805
-0.1536788717439693,-0.13107333371149021
-0.42189658653861695,0.07438712096433553
-0.42441745167232214,0.0787119314009542
-0.14577180944660378,-0.13396537551212453
-0.14196725525294576,-0.13535819894558945
-0.14400914485731406,-0.13461098499300864
-0.13997992217781544,-0.13608556044786926
-0.13973914077329708,-0.13617385006315785
-0.1380654733166892,-0.13679222708577615
-0.1361152548543757,-0.13751108784534932
-0.1342989916419896,-0.13818272681321325
-0.1302687981685425,-0.1396791996856815
-0.12841979281503144,-0.1403578957600664
-0.12636527474604836,-0.14110844573439676
-0.13419703115445777,-0.1382219930994996
-0.1322201152253711,-0.13896335564788315
-0.09900085904242195,-0.15100401045868028
-0.0970188960621226,-0.15173001178692844
-0.10692552438515021,-0.1481409809172094
-0.10877468552800314,-0.14747213431462275
-0.10104849624836501,-0.15025845089490383
-0.11463533748601841,-0.14534300244943768
-0.11475235918057726,-0.14530099092468693
-0.11271444511510575,-0.14603807999460797
-0.1107279233143157,-0.14676156456721084
-0.12431409015717389,-0.14185045473012095
-0.12050085497641916,-0.14322723125316053
-0.11850121162977925,-0.14395073347275178
-0.09509651716763147,-0.152431009051342
-0.0936469642812283,-0.15295916008475713
-0.10486340827147464,-0.1488800884673938
-0.10279168935480859,-0.14962894100845142
-0.10281454423722529,-0.14962067080136515
-0.11659187301036611,-0.1446414882343885
-0.12254793227660163,-0.1424871979566452
-0.08789004135809336,-0.1550556489770048
-0.08923753982566528,-0.15456473938362078
-0.08707459484689906,-0.15535260875495685
-0.08543959201370994,-0.15594690153149746
-0.08337849645857778,-0.15669828841203304
-0.0827843652631158,-0.15691497441239055
-0.09314371169727549,-0.1531427659309943
-0.08986058194186786,-0.15433804054264397
-0.09122710534167289,-0.153841088263355
-0.087284656099199,-0.15527628137332006
-0.08133438990725395,-0.15744412776165212
-0.07554220112397755,-0.1595627016543381
-0.07752108065827021,-0.15883630671105117
-0.07957049041639914,-0.15808855170745073
-0.07415249171745467,-0.16008617604869813
0.296135376227951,-0.07926802399772423
0.29435268676221693,-0.07991726935220263
-0.07362574105671472,-0.1602880253923667
-0.07167996100369099,-0.16101907394810544
-0.06976819523050876,-0.16172213823683854
-0.06961498127768281,-0.1617802138089592
-0.004294436825021354,-0.1854539870547272
-0.0034097051575815735,-0.18577556165760023
-0.007212777929599172,-0.1843939758684435
-0.005334943403434181,-0.18507606846900773
-0.0016558409944778555,-0.18641450373542312
-0.0014102734150017843,-0.18650430796988943
-0.009078692871139155,-0.18371719347136878
0.02085768372191866,-0.17939309547431087
0.021924250771812384,-0.17900716662701668
0.01674838457978456,-0.18088437397262427
0.018786015431100714,-0.18014422991639223
0.29803859291738066,-0.07857539432846382
0.2938757436776555,-0.08009110856034027
-0.06778756464388949,-0.16247887472104913
-0.067239069754887,-0.16270787587022226
-0.02267700730157612,-0.1787856714958401
-0.02099266224608056,-0.1793941525379396
-0.03456229335320355,-0.17450301214867342
-0.03258368106019568,-0.1752139518168032
0.012925915169337715,-0.18227430514886492
0.014982779161838492,-0.18152633195274137
0.009022748783083501,-0.18369072497295402
0.010831363827061688,-0.1830342300960502
0.010953053478550332,-0.18299015697313517
0.007081422770326675,-0.18439530928865766
0.005203020524236927,-0.18507794661595012
-6.72947468010442E-5,-0.18699749740928232
-0.012347523990701893,-0.18253501005101475
-0.011087518134877267,-0.18299110298137752
-0.009155660787454473,-0.18368935372338913
0.02464984179880956,-0.17802382841305187
0.02621842592085339,-0.17745739551247208
0.022694796674753402,-0.17872942950034992
0.2999395223088622,-0.07788176419326745
0.29224714402959284,-0.08068764897950234
0.29024266156277256,-0.08142254151320286
0.2863918415940414,-0.08282989727853826
0.2883441981435987,-0.08211693394120095
0.2845726780558268,-0.08349380059175392
-0.06647515319582087,-0.163079715638205
-0.06590386983717063,-0.16338040830352224
-0.0648190892269977,-0.16382327000356045
-0.01892050575391497,-0.18014394876509324
-0.022829995979680814,-0.17873108803238447
-0.016883160339594125,-0.180884876712814
-0.029723177441507716,-0.17623817751286455
-0.02869318228539631,-0.17660891544273413
-0.026783057557840332,-0.177299305653642
-0.024784326132475585,-0.1780235179046879
-0.03473008167535117,-0.1744425684934882
-0.030649855449410457,-0.17590777918386347
-0.04311874840758428,-0.17149173253415104
-0.04251922292047131,-0.17169997495684072
-0.03839293959964743,-0.17314280150603528
-0.03882995793600695,-0.17299114373544622
0.0032773130645396245,-0.18577799632809144
0.0015227587335505603,-0.18641965328476062
-0.015118379609863373,-0.18152913555785552
-0.013061490278880636,-0.18227726180581133
0.026649648930660276,-0.17730257639099456
0.02856068660839286,-0.1766147005076778
0.08532365819776161,-0.1559982070069745
0.08716828573076527,-0.15532638767026746
0.20845552899800454,-0.11125190029855074
0.20862793723024198,-0.11118974305335838
0.20633034891545082,-0.11202167380165563
0.2043346291014874,-0.11275006992828607
0.3016183848173166,-0.07726960198653933
0.28445127195251774,-0.0835382929870526
0.2824890897029597,-0.08426126939047758
0.2813747323463336,-0.08468486758704584
0.28054617886670574,-0.08500022730908716
0.2805460725506825,-0.08499993504919429
0.2805445121389279,-0.08499564551918327
-0.05992444837981366,-0.1654603796363792
-0.06008375405148368,-0.16540726066372358
-0.06348813997027825,-0.1643079595451985
-0.06199225173860401,-0.16478742650986572
-0.06408904219324027,-0.16412452304716896
-0.03662096555474859,-0.17376656879259245
-0.0404428560126774,-0.1724285547298768
-0.044370344152289416,-0.17106511538538055
0.030516257513171968,-0.17591054477747511
0.10270188962837525,-0.14968098855122935
0.10272302216174439,-0.14967339031480129
0.09111075661594897,-0.1538912538066127
0.09302899617563443,-0.15319742040206075
0.08912106102165378,-0.15461454687255313
0.08326198090437463,-0.15674799586752353
0.08121731917334381,-0.15749231081736717
0.07644333821707233,-0.15923320832914672
0.0774030552998673,-0.15888186961395823
0.1946291064374963,-0.11633507825019736
0.19277186036573604,-0.11701910604360272
0.178321330499701,-0.12227686599233954
0.17707475841693202,-0.12271939422810671
0.21024514788229626,-0.11062341576843222
0.20397235577550055,-0.11288331408533779
0.20140211908765915,-0.11388071712719978
0.20243532486796417,-0.1134742925571841
0.2118625592508172,-0.11007549996703865
0.3505502016683972,-0.034704857696232085
0.35152203453268505,-0.033625344405155855
0.3466017876912332,-0.03861041720117531
0.3476150899299416,-0.03759656201462554
0.30329308144411915,-0.07664596938777027
0.2849565633740422,-0.08342351204726367
0.2853212197306106,-0.0832747002396434
0.2844666821292799,-0.08358065514252343
0.28250633295290256,-0.08430867062152823
0.29617553893778703,-0.07937538003980124
0.29439810886660256,-0.08004137774722754
-0.05815377853360179,-0.16608696559143202
-0.056106271538439556,-0.16684700745438327
-0.055433066243366635,-0.1671008937835707
-0.04615457587939964,-0.17047982593961958
0.03826289253836393,-0.17315537958292554
0.038957389576766276,-0.17291116867538517
0.034428835577521896,-0.17450618154291367
0.03578963217118866,-0.1740218957511679
0.03125994378682197,-0.17564192708406937
0.03244981672391113,-0.1752159947253743
0.1021289929423056,-0.1498894816211124
0.10475043743309065,-0.14893954185595654
0.09490111059477625,-0.15251878416588582
0.07945283359657723,-0.15813512595268756
0.0754243129397167,-0.15960864755047854
0.11490273120823044,-0.14528436591160881
0.11452823310097315,-0.14541860141130844
0.1126038402392501,-0.14610405228782863
