"Plane Section: Position[X] (m)","Plane Section: Position[Y] (m)"
3.5,0.0020397058580225213
3.2700000000000005,0.0020630905221346333
3.04,0.0021423976054546277
2.8100000000000005,0.002256959306614226
2.58,0.002440697908808308
2.3499999999999996,0.002726129835078605
2.1200000000000006,0.0030929948058930476
1.8900000000000003,0.0036221700761246544
1.7935028514792233,0.003999999999999854
1.6600000000000006,0.004524664036189055
1.4300000000000002,0.005990638365059291
1.2000000000000006,0.0074772886045053
1.1760000000000002,0.008282402428386073
1.1520000000000006,0.008961698009987303
1.1280000000000001,0.009665984702941832
1.104,0.010177064470148208
1.0800000000000005,0.010677818025765494
1.056000000000001,0.01109661523892216
1.0320000000000005,0.011563703344350782
1.0133960021354547,0.011999999999999896
1.0080000000000005,0.012129339947665935
0.9840000000000005,0.012614120952234735
0.9600000000000004,0.013170135638327682
0.9360000000000004,0.01380536902661485
0.9120000000000005,0.014437884375411193
0.8880000000000003,0.015573107521844817
0.8640000000000005,0.017555084659664773
0.8400000000000003,0.0195778257472008
0.8336273127141678,0.019999999999999487
0.8160000000000001,0.02116750946882695
0.7920000000000006,0.022796748662550718
0.7680000000000007,0.02417497176787041
0.7440000000000009,0.02553963446444969
0.7200000000000009,0.027575421562422573
0.7158641347914858,0.027999999999999123
0.6960000000000008,0.02994424768300899
0.6720000000000008,0.03268179164671173
0.6496763349515544,0.035999999999998394
0.6480000000000008,0.036279998091489
0.6240000000000009,0.04048507524754043
0.6071266567445202,0.043999999999997735
0.6000000000000008,0.045603230444610204
0.5760000000000005,0.051239892311055246
0.57339187849029,0.05199999999999698
0.5520000000000004,0.0581725041244965
0.5464672684990335,0.05999999999999603
0.5280000000000005,0.06764662555891587
0.5271568731492682,0.06799999999999568
0.5140543235550254,0.07599999999999486
0.5075199429722469,0.08399999999999425
0.5039999999999998,0.0877894511266523
0.4998952493401008,0.09199999999999323
0.49296587232593353,0.09999999999999268
0.490751728679171,0.12166666666665966
0.4906038650921083,0.143333333333326
0.468048514723571,0.14333333333332593
0.45599999999999885,0.12909136977788954
0.4947139390626711,0.164999999999993
0.4521918009644878,0.1216666666666589
0.4729193683920313,0.16499999999999285
0.4799999999999971,0.17439535284305072
-0.5731223075297004,0.051999999999995605
-0.5759999999999998,0.051161842854798495
-0.5461327743580167,0.05999999999999464
-0.5519999999999998,0.05806926456362205
-0.5270781033645282,0.06799999999999401
-0.5279999999999998,0.06760676663368226
-0.6067671194482405,0.043999999999996514
-0.6239999999999999,0.04041456504119957
-0.5999999999999996,0.045528488194070335
-0.5145525739235591,0.07599999999999324
-0.6493724401030111,0.035999999999997034
-0.6719999999999999,0.03265551323983447
-0.648,0.03622838332466338
-0.5074292831968407,0.08399999999999253
-0.4989248973672431,0.0919999999999917
-0.5040000000000003,0.08727712256113226
-0.7145051370168721,0.02799999999999791
-0.72,0.027423911714304906
-0.696,0.02986789589571825
-0.4919548231840203,0.09999999999999103
-0.45600000000000274,0.1231457241504945
-0.45501411246556184,0.12166666666665746
-0.744,0.02529223316818656
-0.48967277652676033,0.12166666666665765
-0.47571348828532045,0.14333333333332474
-0.768,0.0236459711999363
-0.48508627808570476,0.1433333333333248
-0.48000000000000714,0.15889794212580066
-0.7919999999999998,0.02254198448596821
-0.8324563420556079,0.01999999999999877
-0.8400000000000001,0.01952628134127269
-0.8159999999999998,0.021054790532372518
-0.864,0.01800962119634525
-0.8880000000000001,0.016051260691024367
-0.9120000000000001,0.014649542375077708
-0.9360000000000002,0.013785416835224322
-0.9600000000000002,0.01311697880264313
-1.0032491584171548,0.011999999999999612
-1.008,0.011871759344849495
-0.9840000000000002,0.012511904112959351
-1.032,0.011272743932297961
-1.0560000000000003,0.010807637524235506
-1.0800000000000003,0.010424325520903353
-1.1040000000000003,0.009972168768047768
-1.1280000000000001,0.009604088188287575
-1.1520000000000001,0.009171337639589498
-1.1760000000000002,0.008580756049549408
-1.2000000000000002,0.0076479676166856195
-1.4300000000000002,0.006033851055497639
-1.7971197165388149,0.004000000000000103
-1.8900000000000001,0.003641553114192643
-1.6600000000000001,0.004530436243558458
-2.12,0.0030957643689581674
-2.35,0.002712880083752207
-2.58,0.002452672316356845
-2.81,0.002270755537658633
-3.04,0.0021379282722133698
-3.27,0.002063281179917248
-3.5,0.0020500921379352764
-0.30169008641849027,-0.08003859541232763
-0.30002322851509033,-0.08064534518840777
-0.3516045268776474,-0.03549300707286245
-0.3497091973667257,-0.037469574200328766
-0.34627824900727106,-0.04137643150064582
-0.34769899619721767,-0.03955756416772739
-0.35551005159842874,-0.03139477747988766
-0.35346217706293825,-0.033562659904102385
-0.357152283178902,-0.02965575673578232
-0.29444301460002625,-0.08267808128294397
-0.2962250146834915,-0.08202914891698193
-0.29233643388646213,-0.08344523654587226
-0.2903303354619149,-0.08417581454749662
-0.2884308732871208,-0.08486753979235998
-0.2864778725187662,-0.08557874721273283
-0.2845367516494902,-0.08628562899743238
-0.282571865519583,-0.08700117238785775
-0.28061886460196844,-0.08771239257267599
-0.3033910814937884,-0.07941763961505134
-0.2981242484397683,-0.08133740421646662
-0.345746296085127,-0.04195838670972858
-0.3444335959035124,-0.043329883014015566
-0.34253317681900397,-0.04528334439733302
-0.3437935223447067,-0.04394320346561383
-0.35941555555604615,-0.02717923435307692
-0.2787473811422585,-0.0883939234401537
-0.30347066054624416,-0.07938875682921144
-0.3418407724528592,-0.04606276648435724
-0.3409963587366542,-0.0472367414273773
-0.3391275587882804,-0.04919019721446707
-0.3398880599431949,-0.04839354174802292
-0.36074282116305323,-0.025748871189898628
-0.26108890051879474,-0.09482471824471837
-0.25913590110937534,-0.09553594257101265
-0.25726734531235657,-0.09621642752655932
-0.27671285960155845,-0.08913482425087772
-0.2747598591588759,-0.0898460457398313
-0.2729671574732277,-0.09049896819591714
-0.27085387628028973,-0.09126853816377578
-0.26884994379368554,-0.09199833328456992
-0.2649948988517898,-0.09340226825803354
-0.26305646826558926,-0.09410819580449534
-0.3035801208816045,-0.07935161304385943
-0.3379353045813721,-0.050482198983845095
-0.3373120129440941,-0.05114364357617972
-0.335575253557927,-0.05309707599358003
-0.33598256367349777,-0.05265252218020988
-0.3633210025686565,-0.022641947586948305
-0.36401270707893313,-0.021842042395813527
-0.25522991260067684,-0.0969584195348733
-0.2532769148376516,-0.097669648382107
-0.2514877006285826,-0.09832130442812718
-0.266947890881468,-0.09269102366723408
-0.3036391953041666,-0.0793341677562817
-0.33393656729888815,-0.055050491053137404
-0.3340298449657344,-0.05494827774444727
-0.3667049963683387,-0.01793531582981408
-0.23578740530078168,-0.1040391514708092
-0.2376530246183703,-0.10335973147259625
-0.2493709312981928,-0.09909213899123044
-0.24736957124939252,-0.09982102547377064
-0.23960601524504618,-0.10264848302920893
-0.3037862402810848,-0.07928576890010691
-0.33227328342554024,-0.05700391046620509
-0.36722630528494776,-0.017289375355954588
-0.36974422165212584,-0.014028527860064316
-0.23179407933121246,-0.10549354982582844
-0.23374705182794853,-0.10478225159825764
-0.2300083981619043,-0.10614394896528262
-0.22788809965110302,-0.1069160510326729
-0.22588930581630268,-0.10764400011804204
-0.2454649690627115,-0.10051468810044233
-0.24351198819535594,-0.10122596334258699
-0.2415762578693357,-0.10193094237875527
-0.3039470244553845,-0.07923417232727555
-0.332077121028863,-0.05721448840902697
-0.3305306046343759,-0.058957343931273914
-0.371131710053605,-0.012513406915985379
-0.37325730832802895,-0.010121656022190085
-0.2239821615767991,-0.10833866648760804
-0.2220291878246464,-0.10904996126784329
-0.2200961341803658,-0.10975390584354579
-0.21759736167850469,-0.11066397257569006
-0.2181232019406302,-0.11047244543898119
-0.30401991536947326,-0.07921910798607058
-0.33012437978586817,-0.0593829181740996
-0.32868252352177657,-0.060910796051362986
-0.32678518667946993,-0.06286425688915892
-0.3281716173999521,-0.061431888764825006
-0.375037188508622,-0.008153772168990433
-0.2143077337872098,-0.11186256796362877
-0.21617032694575078,-0.11118401140325096
-0.304154020560663,-0.0791859568894609
-0.32621884718037575,-0.06343659852785288
-0.3248340969213036,-0.06481772724061766
-0.3225301099739418,-0.0667712600508916
-0.32426606623054194,-0.06538068149196795
-0.37682885717103354,-0.006214773837170976
-0.210311657260493,-0.11331858654968786
-0.20852979772349114,-0.11396840009107273
-0.20640608210204928,-0.1147421985588695
-0.20441004636061963,-0.11546972521632637
-0.21226448907503842,-0.1126069020137356
-0.30449785745884206,-0.07907377006430352
-0.3053481258061639,-0.07875766586785249
-0.30535125511655764,-0.07875601861496376
-0.32231321914322775,-0.0669510825981086
-0.32036031640341517,-0.06820704273231881
-0.31973474160444043,-0.06872487983013725
-0.37894252246438365,-0.0029777053524238303
-0.3795076498702265,-0.0023080496599194303
-0.20094836573725552,-0.11673252964849053
-0.2025007120144935,-0.11616637368555617
-0.30551077531866544,-0.07871518154889989
-0.3184074759125165,-0.06981471409253465
-0.3174897763783179,-0.07067840219423847
-0.31536264930641084,-0.0726319037023137
-0.3164546740413292,-0.07164058981869938
-0.3828476389171209,0.0034272704556605983
-0.18883223316414563,-0.12115185560636299
-0.1907850276276341,-0.12044006850570796
-0.18716343307180489,-0.12176081927399478
-0.2005481238873555,-0.11687872737860508
-0.1986182670497675,-0.11758304396413109
-0.19469054766711974,-0.11901630514177472
-0.19283106131698013,-0.11969417343667454
-0.3056303064544531,-0.07863540434040846
-0.3145018624215789,-0.07341138543718308
-0.31263062287763177,-0.07458551227074679
-0.3849490314681649,0.005505413525567146
-0.18492725507236055,-0.12257710713973435
-0.18293385779085194,-0.12330387067147386
-0.18705413745730212,-0.12180079776486155
-0.19664323081252907,-0.11830421236558086
-0.30576581969377925,-0.07855640600907286
-0.3066901854004935,-0.07806197157562082
-0.30621719679044035,-0.07849289743596716
-0.31254895476860406,-0.07463958584881114
-0.3906585335811811,0.012498234593482649
-0.1771418995172791,-0.12541627756345128
-0.17906897403277094,-0.1247127494935911
-0.1732107359975098,-0.12684850993583144
-0.17516377556462087,-0.1261373958811784
-0.1713539554466809,-0.1275245408976282
-0.1810217150626953,-0.12400081566626006
-0.3105960358011095,-0.07580385833741952
-0.30969387638762924,-0.07653915707232054
-0.30864319090627357,-0.07738664710757102
-0.39121075850374265,0.013319021902937263
-0.39558181851345997,0.021132295653576726
-0.3984688850891456,0.024638072843019197
-0.4019409915277534,0.028945921277780166
-0.4062794331547855,0.035667344984773204
-0.41184346111214365,0.04457267414784709
-0.40703808071388836,0.03675932352739132
-0.16930465912872333,-0.12827074426595908
-0.16725012417928178,-0.12901912730757603
-0.16145476643727863,-0.13113003272357618
-0.16344590814926918,-0.13040509618139126
-0.4140894557727942,0.04966543709210062
-0.4152178003681118,0.05238577149016686
-0.46709653287594716,0.15395745503093178
-0.46875797363606064,0.15692082397707477
-0.459509336209727,0.1383311119380421
-0.151728109876595,-0.13467298634496983
-0.14987491657172397,-0.1353495507851819
-0.1595397926264165,-0.13182722436880215
-0.15758673272158819,-0.1325382825768123
-0.15566179567706093,-0.13323922841486885
-0.1654866318026113,-0.12966174611387057
-0.4183681603609142,0.06019882919068147
-0.4320304901413198,0.09145124775827199
-0.4375182811057431,0.09868005398035767
-0.4438843179796898,0.10707834599673763
-0.45313943538201595,0.12041007448358337
-0.4549554582716917,0.12270530570834101
-0.15368087578697187,-0.13396112083849304
-0.14797624328899886,-0.13604397685255754
-0.42189842266235156,0.06962847691463994
-0.4255144795783652,0.0758250942532357
-0.14577413703379366,-0.13685405100808476
-0.1478238320195468,-0.13610016069847156
-0.14196948320112296,-0.1382466007941991
-0.144011341715556,-0.13749930149056291
-0.14026348269910388,-0.1388712360430417
-0.13998250779508803,-0.1389749444224028
-0.13806826135288072,-0.13968216684104673
-0.13611833860017764,-0.14040183955911856
-0.13504151133095701,-0.14080067177484532
-0.1302713562816612,-0.1425685078061113
-0.12842222201901662,-0.14324684986978137
-0.12636652644286106,-0.143994166437019
-0.1342034499640615,-0.14112190271088287
-0.13222270847973042,-0.1418527602950327
-0.09900294025856347,-0.15389200939337383
-0.09702077676014297,-0.1546174600815367
-0.108776297782808,-0.15035884533998398
-0.10692578150897046,-0.15102397082649086
-0.1028159640635423,-0.1525068535511555
-0.10330660737272687,-0.15232984654840548
-0.10104971177461507,-0.15314407267468244
-0.11463665749444646,-0.14822891094690788
-0.11526764665341699,-0.1480017335672898
-0.1127164240989264,-0.14892579804108255
-0.11072996000492315,-0.14964944107419448
-0.12431475938873607,-0.14473457603210774
-0.12050198980130578,-0.1461126311265113
-0.1185025012290681,-0.146836558378272
-0.09509843221251353,-0.15531855165590916
-0.09314554941934663,-0.15603009620634767
-0.10486477304581676,-0.15176612001445697
-0.11659233552169994,-0.14752504201156735
-0.12254889325981579,-0.14537212043549563
-0.0912288216609998,-0.15672808516898742
-0.0874140897695003,-0.15811743552832988
-0.08923946049483217,-0.15745229743187722
-0.08724453702387766,-0.15817918166739858
-0.08544135324274178,-0.15883402176809108
-0.0833803733484319,-0.15958572624460807
-0.08245492228065429,-0.15992341893666073
-0.08728660309283831,-0.15816391170557967
-0.081336382225915,-0.16033188254942501
-0.07554565896267146,-0.16245448065577653
-0.07752329745208061,-0.16172467787967662
-0.07957251980025629,-0.1609764082630767
-0.07464774936149801,-0.16279430928132055
0.29613364751627114,-0.08215682545158647
0.2948073237584411,-0.08264009822805028
-0.07363033645189801,-0.1631829279265311
-0.07168285995290224,-0.1639093179717831
-0.0707559393583306,-0.16425321266890447
0.01095091869134447,-0.18587784973075439
0.011059185078372377,-0.18583855471250926
-0.004450129662921789,-0.18828594550110783
-0.003411728449363,-0.18866338451895343
-0.00721476630399058,-0.1872817160816213
-0.005336946939251538,-0.18796384497774152
-0.0016578705368004746,-0.18930230249495322
-0.001331500049440219,-0.18942165897556787
-0.009157561508232069,-0.18657685487668452
-0.009295320527029183,-0.18652694989819793
0.020855475298507734,-0.18228058628697474
0.02227793533911402,-0.18176573227090267
0.01674630708147044,-0.18377222467651533
0.018783909258218878,-0.18303200180055745
0.298036756903857,-0.08146391199448327
0.2943512675545238,-0.08280692328714494
-0.06977323955445411,-0.1646182733451041
-0.06831161872503012,-0.1652057930065278
-0.022831425405837266,-0.1816172972437326
-0.02099422768188264,-0.18228073526173763
-0.023501183090079366,-0.18137414446151345
-0.03456287850255298,-0.17738690274966284
-0.0325847773794013,-0.1780992461276239
0.01292379890121977,-0.1851620492075104
0.01498069601382775,-0.18441416711775654
0.009020644049180746,-0.1865784995210815
0.007079346623891465,-0.18728316132661077
0.00520096105614933,-0.18796584433399213
-6.934703695424508E-5,-0.18988513797386256
-0.012571463074724275,-0.1853420961218061
-0.011089390109137884,-0.18587852697782023
0.026575208355257635,-0.1802148444207366
0.02464752133273511,-0.18091101128022258
0.022692382681105346,-0.18161635522888359
0.2999377059700621,-0.08077032802493816
0.2922461588677982,-0.08357850065622147
0.2902415953090374,-0.08431317202322575
0.2863903565466224,-0.08571937681902048
0.2883428730429913,-0.08500685313573142
0.2856238092235894,-0.08599927910531194
-0.06781474758460337,-0.16543580149321407
-0.06747967011039277,-0.16560240993824857
-0.0644113628554406,-0.16686026594052994
-0.06407583050870645,-0.1669705258721062
-0.01892222181668943,-0.1830309451327102
-0.016885131091871217,-0.1837725724543179
-0.030145755565656795,-0.17897288387273347
-0.028694720598204385,-0.1794954235781329
-0.026784799400780036,-0.18018637270568436
-0.02478590194000012,-0.18091012905036077
-0.03618677146210451,-0.17680066984701986
-0.03065097162742915,-0.17879312808617986
-0.044359771828938764,-0.1739183671862533
-0.04251433720654294,-0.17456884221422386
-0.038390834494753584,-0.17601930456279635
-0.03972964592371616,-0.17555207911996654
0.003275270894268308,-0.1886659487220081
0.0015207135340415815,-0.18930760885467687
-0.015120330751452637,-0.18441677743537235
-0.01306332211461256,-0.18516457598869818
0.028558288214010567,-0.1795016692284947
0.0266471003464781,-0.18018913219933685
0.0853215443139507,-0.1588859580303899
0.0871662652317861,-0.158214395403161
0.20845275812995523,-0.11413784554014682
0.20967533609879796,-0.11369639909693816
0.20534053252682863,-0.11527326977736868
0.20632834578965673,-0.11490972954082113
0.3016169478621599,-0.08015874655905056
0.2844504612851708,-0.08642962640781515
0.2824914361662479,-0.08716128178839916
0.28235257562859106,-0.0872169984152773
-0.05992018705267391,-0.16833096086949417
-0.06112409457160277,-0.1679169242189746
-0.04488789570401096,-0.17373602620240988
-0.06639136842393423,-0.1661392059615816
-0.061975039035733134,-0.16762244325737766
-0.06593678682097931,-0.16635307931787927
-0.036620050438302756,-0.1766463396398725
-0.04043922202023138,-0.17530085932926295
0.030513645184335837,-0.1787969254359848
0.10269926548313504,-0.15256733689632074
0.10401628841528959,-0.15209035608761437
0.0911083453195406,-0.15677818723523787
0.09302635297503356,-0.15608371635097007
0.08911907665762905,-0.15750265393160506
0.08325984273626691,-0.1596356801325324
0.08121526226995937,-0.16038021848140446
0.07727182007408251,-0.16181918630813008
0.0774016487210459,-0.16177156502615786
0.1938182650650653,-0.11952714522759465
0.19462642500157754,-0.11922126964810925
0.1770696294991203,-0.12559885751182026
0.17900150467631987,-0.12490852434531216
0.21023773544840862,-0.11349660151669996
0.20434040196002862,-0.11565950179281914
0.1985553925466201,-0.11779143606907203
0.2004750480703436,-0.11710560852524446
0.21219726422617222,-0.11280332598555827
0.21362304673201327,-0.11232276352391123
0.3497662976508713,-0.037593373469755845
0.3515204291909544,-0.03580343739671156
0.34627337745072884,-0.0414990053234678
0.3476134776874963,-0.03976664085606519
0.30329396366690514,-0.07953638731736118
0.2868022794200961,-0.08563994542632497
0.2874667143461641,-0.08538280837582687
0.28640650592088873,-0.08576377123245932
0.28446451018573393,-0.0864682467038358
0.2824940856909346,-0.08716856530809908
0.28250041072872656,-0.08718595278050108
0.29466693713917014,-0.08284144274573102
0.2961827099806872,-0.08228791868458915
-0.05815774855528842,-0.16898014992559246
-0.05703039836486565,-0.1694077283599415
-0.04632879673151759,-0.1732511483040145
0.03648470042785998,-0.17665559526847274
0.036553013608010824,-0.17663145888114654
0.038256904634895,-0.17603248117871334
0.03991365328123928,-0.17545057454024715
0.03442561812733991,-0.17739089883718098
0.03181963589106862,-0.1783255755225384
0.032446878506094595,-0.17810147956878705
0.10113256352834973,-0.15313936814759688
0.10474758266883925,-0.1518252562530708
0.09690367101887327,-0.1546768254399986
0.09763018404931384,-0.15441342807223993
0.09498056043609321,-0.15537581256774863
0.07945092416748822,-0.16102343902769517
0.0754239260704663,-0.16250114617530512
0.11627233876892853,-0.14767358987584822
0.11452271369250352,-0.14829699093218832
0.11260021662346059,-0.14898765324186347
0.10680735442306485,-0.15107971514411486
0.10865756368826938,-0.15041375387414566
0.12244997693114046,-0.1454815332171334
0.1203946627518797,-0.14619891853211048
0.11839239436955501,-0.14691520038693467
0.16337562260932145,-0.1305931352230613
0.16138541596514544,-0.13132064247257277
0.16541446344781754,-0.1298446087428198
0.18878257931227965,-0.12139659796155941
