"Plane Section: Position[X] (m)","Plane Section: Position[Y] (m)"
3.4999999999999996,0.0016406550087944185
3.2700000000000005,0.0016616283346240594
3.0399999999999996,0.0017270196868726267
2.8100000000000005,0.0018198387724751056
2.58,0.0019716930309051344
2.35,0.002213936667423951
2.1200000000000006,0.002525454608289468
1.8900000000000003,0.0029370949773537946
1.6600000000000006,0.003601322246749741
1.5846918079191101,0.003999999999999929
1.4300000000000002,0.004815451496332911
1.2000000000000006,0.006080303776566386
1.1760000000000002,0.006683982740866614
1.1520000000000006,0.007141228059374047
1.1280000000000001,0.007737180903140499
1.104,0.008212360594199018
1.0800000000000005,0.008651165339962616
1.0560000000000005,0.008952298952131132
1.032,0.009288662629060862
1.0080000000000005,0.009728002386065497
0.9840000000000004,0.010175900467395155
0.9600000000000004,0.010720433589071997
0.9360000000000004,0.011343288117364445
0.9128990781038397,0.011999999999999868
0.9120000000000004,0.012026604943437897
0.8880000000000003,0.01282181895174986
0.8640000000000005,0.013701042295435433
0.8400000000000003,0.014679003977386203
0.8160000000000002,0.015762761995960786
0.7920000000000004,0.01696043857888777
0.7680000000000003,0.01822446727911648
0.7440000000000004,0.019662900866139754
0.7392959248592708,0.019999999999999508
0.7200000000000004,0.021339061708165893
0.6960000000000005,0.023092700715389984
0.6720000000000005,0.02531120455664168
0.6488335582725464,0.027999999999998762
0.6480000000000008,0.028107079538298486
0.6240000000000008,0.031376873754457815
0.6000000000000008,0.035125414641897466
0.5959460366285072,0.03599999999999813
0.576000000000001,0.03996383908384227
0.5577139409653674,0.0439999999999974
0.5520000000000009,0.0453716901212107
0.5280000000000005,0.051402077731079215
0.5260926642573136,0.0519999999999967
0.5062034428904274,0.059999999999996015
0.5040000000000002,0.06115648860320799
0.49248900739315027,0.06799999999999522
0.484592812428532,0.07599999999999439
0.4800000000000002,0.08138042017226005
0.4776307229797263,0.08399999999999383
0.47177520805099854,0.09199999999999287
0.4704960872549443,0.09999999999999237
0.47018979632458513,0.12166666666665935
0.46753299585080077,0.14333333333332593
0.4559999999999975,0.15420633157111002
0.4433404109095109,0.14333333333332562
-0.5263112228912185,0.05199999999999517
-0.5279999999999999,0.051463511678804544
-0.595945569730497,0.03599999999999688
-0.6,0.035121453860926424
-0.5576731112064425,0.043999999999995903
-0.5759999999999997,0.03997547273973581
-0.5519999999999998,0.045355127939729914
-0.5069790192173789,0.059999999999994495
-0.4929479254753967,0.06799999999999365
-0.5040000000000001,0.06156945928326509
-0.6240000000000001,0.031340370835279685
-0.4832461074731703,0.07599999999999316
-0.47483316895806027,0.08399999999999216
-0.4800000000000001,0.07908255887821201
-0.6486273653761592,0.027999999999997922
-0.6719999999999999,0.025348465058785453
-0.648,0.02807881280670478
-0.47003378816045455,0.09199999999999145
-0.696,0.023122732398075628
-0.46987360815259227,0.09999999999999089
-0.4338645470180226,0.12166666666665724
-0.4320000000000022,0.1184920660622529
-0.7379548588971536,0.019999999999998568
-0.744,0.01955880582161
-0.72,0.02127984278696106
-0.4696839887933527,0.12166666666665749
-0.768,0.018153378458988477
-0.46769998493486875,0.1433333333333246
-0.4560000000000064,0.1552404565424606
-0.4416545489849512,0.1433333333333242
-0.7919999999999999,0.016909219069882138
-0.8160000000000001,0.015724733139219006
-0.8400000000000002,0.014662085022683912
-0.8640000000000002,0.013688924809577457
-0.9114291997467026,0.01199999999999933
-0.9120000000000001,0.011979674980289751
-0.8880000000000003,0.0128078024257097
-0.9360000000000002,0.01125303226310374
-0.9600000000000002,0.010642935835855585
-0.9840000000000002,0.010094160051408948
-1.008,0.009606763107276426
-1.032,0.00915538577846695
-1.056,0.00878955476980819
-1.08,0.008484240970291025
-1.104,0.00812469697881914
-1.1280000000000001,0.007792665737418292
-1.1520000000000001,0.007337116119059815
-1.1760000000000002,0.006940932901299652
-1.2000000000000002,0.006240901005518641
-1.5860660324138203,0.004000000000000119
-1.6599999999999997,0.003601463279144958
-1.43,0.004837704354022613
-1.8900000000000001,0.0029522737530879722
-2.12,0.0025232968958979664
-2.3499999999999996,0.0022023614797407947
-2.58,0.0019826069358256236
-2.81,0.0018321010612419085
-3.0400000000000005,0.0017218907691162841
-3.27,0.0016603072607919696
-3.5,0.0016495055457437027
-0.30167951655507774,-0.06364924549979965
-0.30001266409464994,-0.0642560003589927
-0.35894623902744716,-0.013266538757292053
-0.3564158339698794,-0.01717321698200213
-0.29443242781198,-0.06628867916590642
-0.29621443492344296,-0.06563976597747442
-0.29232583477466945,-0.06705580059084598
-0.29031972428655967,-0.06778634545797202
-0.288420261660719,-0.06847806946149608
-0.28646726190856375,-0.06918927967199713
-0.28452613941476473,-0.06989615699550801
-0.28256124803378657,-0.07061168596628731
-0.2806082398430095,-0.0713228861788407
-0.30331915188312497,-0.06305098119046955
-0.2981136753149736,-0.06494803885672704
-0.3555004076067757,-0.018216527383109825
-0.35305257481025887,-0.021080036133603455
-0.3490339291918947,-0.024986966182874312
-0.3515948950504835,-0.02257502526886658
-0.3470833582974874,-0.026940421266122467
-0.3476892809042835,-0.026333143991463068
-0.3594057143540088,-0.0126417327611274
-0.27873675042729656,-0.07200440069094044
-0.3033809383142876,-0.06302859447168335
-0.34573646158783056,-0.02813984722479494
-0.3449881659078765,-0.02889390082071789
-0.343180842200967,-0.030847331665167586
-0.34378368332627585,-0.03018917795676271
-0.36174710988542425,-0.009359814767175137
-0.26107821365942036,-0.07843504132484533
-0.2591252081697508,-0.07914624895474742
-0.2572566466494425,-0.07982671819438637
-0.27670222169467573,-0.07274528175235205
-0.2747492144462156,-0.07345648455252443
-0.27295650106919744,-0.07410937490546832
-0.2708432105024398,-0.07487891913218704
-0.26883927273017527,-0.07560869973904236
-0.26498421466128175,-0.07701259866658557
-0.2630457852920777,-0.07771852955531161
-0.3034963156152959,-0.0629892013506987
-0.3418309272629224,-0.032369696277485455
-0.3414353483615019,-0.03280075204741402
-0.33973292347311923,-0.034754165141980556
-0.3398781796819162,-0.034600343831436474
-0.3633111228200834,-0.007668079346817069
-0.3653566734474569,-0.0054529539385038996
-0.25521920776815793,-0.0805686932613637
-0.25326620337569294,-0.08127990390422232
-0.25147698212823105,-0.08193154062440088
-0.266937211877686,-0.07630136831804374
-0.3035620559011061,-0.06296946054905794
-0.33803677564642814,-0.03670757717440721
-0.3672166558129243,-0.0034303579952877144
-0.3689569249067287,-0.0015460946855297302
-0.23577663211663583,-0.08764923751069433
-0.2376422551738618,-0.08696982778112164
-0.24936020094071,-0.08270234262699626
-0.24735883172722822,-0.08343120394428463
-0.2395952460228603,-0.08625857994748912
-0.30365062546562444,-0.06294310331655333
-0.3340169144922429,-0.04061450742935781
-0.33401982178576944,-0.04061175106203768
-0.33792543174993644,-0.036828917183926155
-0.33614748960326374,-0.03866102188767392
-0.3359726460451095,-0.03883425945428225
-0.37112217373978507,8.964007703546354E-4
-0.37244280411807273,0.0023607452145592866
-0.23178328504231127,-0.08910357791489018
-0.23373626349582616,-0.08839229604286497
-0.22999761257671092,-0.0897540009574404
-0.22787731078288692,-0.09052609400871643
-0.22587849718443304,-0.09125398882366167
-0.24545421615242993,-0.08412482980827499
-0.24350122222051412,-0.08483606917612405
-0.2415654896244427,-0.08554104197975716
-0.30371153629625713,-0.06292983192407066
-0.3320669708308351,-0.04223147623498006
-0.331677103848723,-0.04256802837570897
-0.3748304330885701,0.006267399280185329
-0.22397133376891726,-0.09194860253847567
-0.22201836575450828,-0.09265991307660634
-0.2200853218978358,-0.09336388452920913
-0.21636171775618177,-0.09472001428625583
-0.21811238091905139,-0.09408240012831459
-0.30378153028146493,-0.06291738845861941
-0.3301141088532883,-0.043786059656080914
-0.3293222340383028,-0.044521551870210674
-0.32727277558968726,-0.046475023686181983
-0.3281612926558856,-0.0456111959448256
-0.37502746472382564,0.006564353156694568
-0.21429687929697652,-0.09547243076103187
-0.21615942057684823,-0.09479373173457788
-0.3038716424740865,-0.06290362742575367
-0.3262084876536643,-0.04750249383532475
-0.32524814142529485,-0.04842849130164806
-0.3231960859577089,-0.050381963557058804
-0.3242556804479446,-0.04938076940112514
-0.3773381651323005,0.010174073668400539
-0.21030070320807054,-0.09692817596289452
-0.20851885240909554,-0.0975780135188365
-0.20639518347895208,-0.09835194021123024
-0.20439902911750812,-0.09907914114801683
-0.21225362705819473,-0.09621674414823878
-0.3040132092889159,-0.06287784387456785
-0.3210590756657813,-0.05233545018764022
-0.322302867397841,-0.051224505710408964
-0.3789326913644212,0.01261256442610339
-0.38008158192262376,0.0140807879367327
-0.20053697254126635,-0.10048777511526905
-0.20248959394971763,-0.09977551278626295
-0.19921166438515958,-0.10097089066436299
-0.3043859592331403,-0.06277107423866957
-0.3203500385269518,-0.052974743814069324
-0.31839712418470817,-0.05421986070171112
-0.3182952215458525,-0.05428904288621275
-0.3155898716070926,-0.056242625685311076
-0.3164442138909829,-0.05548890366206556
-0.3828378827096226,0.018869365502947173
-0.18378278396238218,-0.10659772190272135
-0.18491563162959404,-0.10618485869311346
-0.18882094274979153,-0.10476052159809254
-0.1907738175563893,-0.10404895510836304
-0.18704276219773527,-0.10540923079929823
-0.19860696000506708,-0.10119166418014286
-0.19467940072620782,-0.10262536507016921
-0.19281992217851118,-0.10330325480590602
-0.3049063445621919,-0.06261513545359242
-0.30568848749224586,-0.062250843550860094
-0.30562746794185675,-0.062317148284505734
-0.3144913767051604,-0.057190001968114676
-0.3130931918273566,-0.05819617317541784
-0.38549687840147173,0.02189420436863286
-0.18292221842291348,-0.1069115785116755
-0.1966319402067938,-0.10191287776466752
-0.3057867314567312,-0.06218662353981585
-0.30667963615435084,-0.061678879013199205
-0.3062534884109527,-0.062103580574713546
-0.3125384913985384,-0.058606714479276414
-0.3906486928459606,0.028856834526032667
-0.4051583986345573,0.06096003184545264
-0.4025126353905619,0.053147084045117296
-0.17713014582034636,-0.10902367152037346
-0.17905745071529008,-0.10832077604230522
-0.1731997419215156,-0.11045798984933848
-0.17515250902685353,-0.1097461276085761
-0.17134299874237519,-0.1111341234318518
-0.18101019867394058,-0.10760886122413993
-0.31058555302676905,-0.05970982094476267
-0.3099461526472108,-0.06014983071256803
-0.30863265078746815,-0.061026464180762324
-0.3913007007279522,0.02970768654283024
-0.39550143793802095,0.03752089745965684
-0.39845877610517755,0.04314002421019575
-0.39968487561016613,0.04533410544923218
-0.4062679783076707,0.06263010996809022
-0.4464139854299024,0.1547170140281568
-0.45312592974424654,0.16338819841550573
-0.16929367326844003,-0.11188024673521518
-0.1672390317158391,-0.11262833704527261
-0.1614437084038527,-0.11473933701640168
-0.16343480085400855,-0.11401426520330182
-0.41021558984938966,0.06877338768251265
-0.436579326285438,0.12346534946223701
-0.4375065502731673,0.1301705024117964
-0.4388590671583763,0.13909073543990913
-0.46875137583143844,0.1607532204568609
-0.15171673642227446,-0.11828142449989228
-0.14986326070604372,-0.11895721346580268
-0.15952881205333275,-0.11543674136638113
-0.15757584845772582,-0.11614806403869203
-0.15565088479637773,-0.11684893678502534
-0.16547549629067523,-0.11327083764790095
-0.41407846095204315,0.0745530010765291
-0.41590829129426066,0.07658685105399177
-0.42992339744699215,0.10783922299161194
-0.47264148645846127,0.15472145197273826
-0.1457602161286016,-0.12045549405675879
-0.14781153134564617,-0.11970605279390331
-0.15366972990645178,-0.11757018390255522
-0.42188798912699527,0.09211664471602224
-0.42194689048017026,0.09221287306651364
-0.47079024762809035,0.13909613850172672
-0.1452915490542102,-0.12062709394715179
-0.14195697754344253,-0.12185193030711887
-0.14399852947160582,-0.12110378902839787
-0.1399694901076426,-0.1225788679870283
-0.4707268432136765,0.12347112754942781
-0.13805278268122823,-0.1232793326817054
-0.13704321015784549,-0.12364932232829831
-0.4704016052694594,0.10784607229238548
-0.13610213534777635,-0.12399701588280651
-0.1341826063905281,-0.1247043370520986
-0.1307556943727482,-0.12596674262101304
-0.13220055749741094,-0.12543160465431719
-0.1302535384566622,-0.12615925126141642
-0.1284083056124639,-0.1268483068487043
-0.47300468408673424,0.09222151253461539
-0.12635364980133396,-0.12759847861570034
-0.10691778417628235,-0.1346416806757845
-0.10876534331530421,-0.13396843499132127
-0.48153439177388035,0.076597955619259
-0.4843914153847552,0.07187332851953049
-0.11071963992049379,-0.133260772805295
-0.11120246590768924,-0.133087282894301
-0.12430575278005715,-0.12834951529811217
-0.12049629831437766,-0.12973667359847266
-0.11849666176026291,-0.13046019439721357
-0.09607934218527764,-0.13856680115639033
-0.09672173928216768,-0.1383328646272894
-0.09701054728596385,-0.1382290401099443
-0.09899354624596013,-0.137505883548378
-0.1048585661081546,-0.1353887461654091
-0.10280788916414962,-0.13612435010559648
-0.10104132252282776,-0.13676070587958752
-0.48786076541807055,0.06878652599049444
-0.11463178601905422,-0.1318552047760436
-0.11658683382254394,-0.13114960540419918
-0.11271010286853073,-0.13254811074613068
-0.12254252595772933,-0.12899430720248284
-0.0950896416797031,-0.13893408308480187
-0.09313610526214179,-0.13964383276999057
-0.49220487714510985,0.06619014858829766
-0.09122015064635723,-0.14034394480604917
-0.08923034077569542,-0.14106692490701733
-0.0872761369381146,-0.14177484183581085
-0.08543105302266925,-0.1424454075202015
-0.08337073528790327,-0.14319893033256104
-0.08132600741870241,-0.14394306354631783
-0.07751236499602211,-0.14533432764496856
-0.07553151456876626,-0.14605531054398344
-0.07956202154003786,-0.1445872503008367
-0.0736074493813853,-0.14675975081070172
-0.07187168860722078,-0.14741005236677063
-0.06544796455588753,-0.14979094790505118
-0.06581329494375449,-0.1496536461055836
0.2961438759430696,-0.06576188787986154
0.2943612991083781,-0.06641142413753558
-0.07166158965096633,-0.1474905809204624
-0.06975671119543968,-0.1482125581074919
-0.06776604987837385,-0.1489417504436361
-0.06397806219723434,-0.1503417290941489
-0.0035490021911268707,-0.17221829108267833
-0.0034004821805766767,-0.1722722715595505
-0.007203743009982813,-0.17089114110303616
-0.005325802816804418,-0.1715729670404743
-0.0028275825309927926,-0.17248100461633803
-0.008177969229618994,-0.17053807862709913
0.01675793517194099,-0.16738110563050013
0.018795957763385242,-0.1666420384199168
0.27979710654770956,-0.07172885645142626
0.2805410919020029,-0.0714567201921027
0.29804693086505485,-0.06506890862026624
0.2932100772858911,-0.06683100888568713
-0.06242892440757103,-0.15095279746367665
0.012935482799223895,-0.16877108380309097
0.014992235707343066,-0.16802280510648818
0.009032416642511606,-0.17018778608397223
0.009417202514777385,-0.17004823875651803
0.010962990549192211,-0.1694879539708238
0.007090967302673149,-0.1708920397723215
0.005212451659292855,-0.1715743667336614
-0.0016466275900526356,-0.17291156593035698
-5.792712753029077E-5,-0.17349501742854528
-0.011041906836039148,-0.16950336301546218
-0.009147158618011568,-0.17018797448825357
0.022705594194749434,-0.1652295887389178
0.02457992820058761,-0.1645529139595555
0.020268857303591556,-0.1661088590016965
0.02086832028204037,-0.16589281231869704
0.27664055325987397,-0.07289417918535408
0.2746905769145514,-0.07361371405015041
0.27464679063279873,-0.07363017462970725
0.2999476754549061,-0.06437504290134362
0.29225515771174737,-0.06718015717388848
0.29024939777992836,-0.06791153691754533
0.28639849069848855,-0.06931865242396781
0.2883503027166886,-0.06860419237037642
0.284458023109333,-0.07002732861960365
0.282493228264219,-0.07074312305066563
0.27867197291514023,-0.07214475115791516
-0.06193945520786549,-0.15116440461270805
-0.019954938705038484,-0.16626990854987733
-0.018913228851512493,-0.1666459200712251
-0.022822938197374007,-0.1652336612164818
-0.020986177590399918,-0.16589829945169435
-0.0168746228987774,-0.16738338653137452
-0.027466801103376494,-0.16355287253069056
-0.026775849034947233,-0.16380146502086235
-0.024776853796288738,-0.16452495277522947
-0.031033598513088727,-0.16228172768723823
-0.03064603440933578,-0.16241924094509164
-0.03397889662634601,-0.1612507825791744
-0.03258372260987748,-0.1617360205335216
0.003286665229930998,-0.1722741773376444
0.0015320723642855726,-0.17291559504484907
-0.015109476541691107,-0.16802664139462573
-0.013053016333590954,-0.1687759463722572
-0.0110791150353372,-0.1694899843816193
0.026661234030937685,-0.16380490044351334
0.028529686858245897,-0.16313457177643484
0.02466068944549521,-0.16452412535865346
0.08717774953238891,-0.14182287982342126
0.08533295226258115,-0.14249423255413607
0.20243293275762397,-0.09993819246543435
0.2004790384490589,-0.10064695714508493
0.19872029861087145,-0.10129222420001434
0.2766495749854459,-0.07291897922785043
0.27469103991492483,-0.07361498680322252
0.30162713325903046,-0.06376412307821364
0.27765572617412804,-0.07257720324814122
0.27686751529513953,-0.07284312654371922
-0.06111275558343321,-0.1515257413377462
-0.028688315402927725,-0.16311750510961964
-0.034571747164267766,-0.16105092738135923
0.02857298819285857,-0.16311899400686627
0.08913236450089275,-0.14111609618353996
0.08327213874492731,-0.14324639587206844
0.08122723048705185,-0.143990033130145
0.07543165837752863,-0.14609931632375042
0.07741284909876567,-0.14537926885577918
0.1890448930981853,-0.104874352429222
0.1907302030629206,-0.10424750778013794
0.1946385530714836,-0.10283152164349534
0.1927780232969758,-0.10350652265457506
0.20363311942919934,-0.09950504501968918
0.20499063573568438,-0.09907363216883197
0.2043570193269658,-0.09928209512714459
0.20178256619421076,-0.1002406592812749
0.20049686155178253,-0.10069595150890454
0.3033045843111613,-0.06314237814602822
0.2786992965926864,-0.0722198618846695
0.2805766453373364,-0.07155445390170855
-0.05994966496437643,-0.15205158296002486
-0.05218915288561045,-0.15476087842199743
-0.05311803748524102,-0.15443711284314593
-0.05023346589998885,-0.1554647225795711
-0.048327526562742334,-0.1561752098191137
-0.03625577722198828,-0.16048405972793772
-0.0390037971399552,-0.15957698102322493
-0.0384294371159793,-0.15976498014766757
0.03246527550544317,-0.16172896686991145
0.03262007562967626,-0.16167431915096186
0.030529994988171025,-0.16241878531830742
0.07350581904201788,-0.14679888344030295
0.07294610170538751,-0.14700457301268777
0.0676567107539264,-0.14895974420869773
0.06650283987682891,-0.14939010895154803
0.10271604778361078,-0.13619038504454045
0.10476447196345001,-0.13544859845498822
0.08923637505836805,-0.141078519843882
0.09112330562088744,-0.14039622696575713
0.09304039762228034,-0.13969923894797842
0.0794625046488637,-0.1446321877902889
0.10682429555786398,-0.13470319977058776
0.10861929444369495,-0.13406904320655594
0.12067192257568653,-0.12974697732913795
0.12041713601435063,-0.12983760923586643
0.1184176152454992,-0.1305614443312677
0.1633850979236562,-0.1141960949160661
0.16139559708236836,-0.11492554228913049
0.16542327178625715,-0.11344573511589803
0.19056405374350469,-0.10441534810301001
0.19659075649700333,-0.10211810885401149
0.1978559962120276,-0.10166906149290286
0.17254025809501872,-0.11087838578343442
0.1712950225737518,-0.11132069821430837
0.16924145749441305,-0.11205516737626305
0.1671853916791457,-0.11279934273942037
0.18489442985496352,-0.10644502567709194
0.18655663284576268,-0.10587316214917349
0.1828940828652545,-0.10715268614420614
0.17709925915192384,-0.10925722023237261
0.1790283118163537,-0.10855912792547179
0.20436561403892664,-0.09930572134145965
