"Plane Section: Position[X] (m)","Plane Section: Position[Y] (m)"
3.5,2.1836094972390197E-4
3.2700000000000005,2.2092881557579072E-4
3.0399999999999996,2.2918464779902808E-4
2.8099999999999996,2.4202485370244898E-4
2.58,2.607864242516704E-4
2.35,2.9425792289630227E-4
2.1200000000000006,3.384895921405129E-4
1.8900000000000003,3.9648047770457647E-4
1.6600000000000004,4.8676463901756737E-4
1.4300000000000004,6.219750831003409E-4
1.2000000000000002,7.644952957611363E-4
1.1760000000000002,8.415189787691871E-4
1.1520000000000001,8.690758095636866E-4
1.1280000000000001,9.019930277354944E-4
1.104,9.391549721317564E-4
1.0800000000000003,9.77121643339476E-4
1.056,0.00101614720106991
1.032,0.0010572561978960723
1.008,0.0011038431081330366
0.9840000000000002,0.0011517955561317459
0.96,0.0012008648711768623
0.9359999999999999,0.0012573319388468548
0.9120000000000001,0.0013180611756836377
0.8879999999999999,0.0013818534750749236
0.8640000000000002,0.001452749146571918
0.8400000000000001,0.0015306662874097117
0.8160000000000001,0.0016142549527039824
0.7920000000000005,0.0017082716718085484
0.7680000000000007,0.0018099436264775366
0.7440000000000005,0.0019223352997275933
0.7200000000000004,0.0020508806648028917
0.6960000000000006,0.002196621010850745
0.6720000000000004,0.002365899365853
0.6480000000000004,0.002553017199465963
0.6240000000000003,0.002775296098488333
0.6000000000000003,0.0030760404918019936
0.5760000000000001,0.003519823755301005
0.5586284338485914,0.004000000000000407
0.552,0.004191001288174976
0.528,0.005190979450049352
0.5040000000000001,0.00594125149929294
0.4800000000000001,0.006672641548177647
0.45599999999999996,0.005809754280350922
-0.48000000000000026,0.006665375929962017
-0.45600000000000007,0.005830009627952888
-0.5040000000000002,0.0060083378028950845
-0.5280000000000001,0.005250319830099942
-0.5588717745091976,0.003999999999999188
-0.576,0.003536802546752856
-0.552,0.004194653307201824
-0.6000000000000001,0.003099700641488361
-0.6240000000000001,0.002781745940437271
-0.648,0.0025526230761936134
-0.6719999999999999,0.0023714841080691796
-0.6960000000000002,0.0021987508442033697
-0.7200000000000001,0.0020530392419315386
-0.744,0.0019261864946960743
-0.768,0.001809442302982404
-0.792,0.0017083014501756131
-0.8160000000000001,0.001614936173626456
-0.8400000000000001,0.0015291905337372928
-0.8640000000000001,0.0014525111594577522
-0.888,0.0013824143825973884
-0.9119999999999999,0.0013167002686491252
-0.936,0.001256646501552167
-0.96,0.0012002338708882684
-0.984,0.001150082324068145
-1.008,0.0011023763793311715
-1.032,0.0010576693547386137
-1.056,0.0010156437480103218
-1.08,9.737302277163781E-4
-1.104,9.368142277215632E-4
-1.1280000000000001,9.007127174531717E-4
-1.1520000000000001,8.728588066212949E-4
-1.1760000000000002,8.430907562253853E-4
-1.2000000000000002,7.621261050670314E-4
-1.43,6.210494596548563E-4
-1.6600000000000001,4.863196731447305E-4
-1.89,3.9744126799315415E-4
-2.12,3.372761512401757E-4
-2.3499999999999996,2.940755235923126E-4
-2.58,2.6181382956314665E-4
-2.81,2.4226136218767895E-4
-3.04,2.2942975249431161E-4
-3.2699999999999996,2.2108727007666396E-4
-3.5,2.1869066741080274E-4
-0.2943908344522028,0.023863637347683216
-0.29617293571121683,0.024512312157661843
-0.29228409747730966,0.023096907073878674
-0.2902778776533681,0.022366662127609436
-0.2864252192489126,0.020964266278736706
-0.2883783137810829,0.02167521617336842
-0.2844840095586217,0.020257628444874436
-0.2825190342397149,0.01954233001378779
-0.28056594652763944,0.01883134820956189
-0.30164028373945034,0.026499608302256877
-0.29997199503732663,0.02589451323354799
-0.29637933402530786,0.024587442610338885
-0.2786943825594057,0.018150038458340824
-0.3025383625706666,0.026826957552136807
-0.298072386248264,0.02520356971426549
-0.2610351553711069,0.01172129403473457
-0.2590820820511258,0.011010272697296927
-0.25721345199936185,0.010329991673862912
-0.27665977676090603,0.017409369060899203
-0.27291392460809527,0.016045637128129706
-0.2747066944213089,0.016698372499173542
-0.270800536033476,0.01527636209416432
-0.26879651517708547,0.014546809672403644
-0.2630027964476119,0.012437615079775269
-0.2649413047406448,0.013143329211820437
-0.30334466377822505,0.027119934034723327
-0.2551759378167829,0.009588223414503943
-0.2532228659678846,0.00887719803619476
-0.2514335934761653,0.008225702031529676
-0.2668943807016982,0.013854343294575773
-0.3034567960867458,0.027159157422911778
-0.23573262796399375,0.0025096955485090803
-0.23759831951544774,0.0031889171669578385
-0.24731528223511057,0.006726480459317428
-0.24931672978164915,0.007455126646368056
-0.23955138723044747,0.00389995390054505
-0.303583678533678,0.027199582105804206
-0.2317391155214772,0.0010558092982299763
-0.2336921827444619,0.0017668473833149713
-0.2299533664269151,4.055966785207471E-4
-0.22783297898244415,-3.6626112256664053E-4
-0.22583410325596026,-0.0010939853106689747
-0.24541059200408977,0.006033059627624416
-0.2434575240126396,0.005322023653415683
-0.24152171174016568,0.004617269667260016
-0.30363871579994917,0.02721050547253471
-0.21425185885709247,-0.005310706707549566
-0.2161145952688867,-0.004632543538606671
-0.22392685168571713,-0.0017883569307676403
-0.22197378620038088,-0.0024993997889421965
-0.2200406669189106,-0.003203164096642991
-0.21806764766556946,-0.003921464727606713
-0.3037394048610552,0.027234535565141257
-0.20847324130582523,-0.007414667466101328
-0.21025540566534368,-0.00676569093596834
-0.20435301662384875,-0.008914692817634367
-0.20634929893057075,-0.008187843225154742
-0.21220845709465969,-0.006054609467742585
-0.30393812684941324,0.027291027146318213
-0.20279412707625816,-0.009482328809296161
-0.3042193131405958,0.027375331451893296
-0.1897559244167651,-0.014234377840486513
-0.19072638946987586,-0.013880620696525082
-0.20049047094385272,-0.01032198393660879
-0.20244326021216413,-0.009610182346409186
-0.19856031243301794,-0.011025472340479542
-0.192772555578206,-0.013135089099937387
-0.19463210139462156,-0.012457383915842536
-0.3046521458357305,0.027510582240291487
-0.18486809986322533,-0.016016240267588973
-0.18287459336132356,-0.01674270406024376
-0.18877367886123267,-0.014592638354544512
-0.18699559865015628,-0.015241623519301658
-0.19658484385380431,-0.011745453747102336
-0.3052964201948902,0.027726136379909495
-0.3057942054111583,0.027890912903495376
-0.30561170451805353,0.027839356278692662
-0.17900953710086448,-0.018151109515647253
-0.1770820145812869,-0.018853407517464674
-0.1731508210705855,-0.020285557756789526
-0.17510367513197622,-0.01957393414470651
-0.17129426282182061,-0.020962199340821247
-0.18096242514959143,-0.017439579262327337
-0.3058387954982465,0.027906786468868683
-0.16924502673405664,-0.021708568163081365
-0.16719042231301834,-0.022456760463906666
-0.1625448481588953,-0.024148813465123688
-0.16338601651988122,-0.02384220831956644
-0.30621404650597933,0.027958051050637485
-0.32226309723031477,0.03020112869526794
-0.3203099803297231,0.03008723641559255
-0.3196343116362007,0.030002406551675312
-0.31640377752483395,0.029423853538656952
-0.31445067737328714,0.02907458293353762
-0.3124975764992747,0.028735465310145578
-0.3242162260014439,0.03014820161299319
-0.16542672582198914,-0.023098818743680125
-0.16139524133041971,-0.024568151633864898
-0.31054447567294896,0.028395677508327964
-0.3086670144573133,0.02804850113580109
-0.30859137663794656,0.028030715853137565
-0.3066382822338858,0.027600674490809364
-0.31835687651561534,0.029789436648769006
-0.32509892377611604,0.030002795402545204
-0.15166925162432854,-0.02811293741681143
-0.14981552238498685,-0.028788030237496706
-0.1594804039369334,-0.0252657179791555
-0.15752761774459056,-0.025977528018641158
-0.15560292568567882,-0.026679146816282584
-0.3252371036885967,0.02804968023020775
-0.3228603820559496,0.026096386102507734
-0.32421642724818783,0.02732003412806653
-0.14571187340902653,-0.030284651792637472
-0.14776356861728385,-0.029536253630637017
-0.141905327709424,-0.031672006970889545
-0.14394812847657656,-0.030927294796863625
-0.15362204231114843,-0.02740113972307382
-0.1399170754133014,-0.03239684456323409
-0.3203103858528292,0.02438832548195437
-0.3222634161439767,0.02571936052731286
-0.3199765675960353,0.024143055891095208
-0.13800008721318316,-0.033096538703984504
-0.13790326271091002,-0.033131934337820614
-0.13019070057412785,-0.03594860821581718
-0.12834056697804608,-0.03662420671003319
-0.3183573618746994,0.022968572065119132
-0.31738094596197775,0.02218974618690311
-0.31514551449186057,0.02023646211312303
-0.3164043501147613,0.02137711354121943
-0.12628548870466505,-0.03737321858292847
-0.13604853783247903,-0.033811746103182744
-0.13412669223255824,-0.03451270602288564
-0.1321431499877251,-0.03523587308919294
-0.31445135850626754,0.019502462055117444
-0.31337584212423897,0.018283211181831065
-0.12423627850583144,-0.03812064958862523
-0.12042756229964832,-0.03950983582131125
-0.1184298310542645,-0.04023858902578457
-0.31249842439255726,0.016819822918166243
-0.1145691355452231,-0.04164507866535976
-0.11524449489437374,-0.04139937455424917
-0.11264947384648193,-0.042343535469919334
-0.11220472152469599,-0.042506006545017155
-0.12247255865335575,-0.0387640879550806
-0.1169006184531349,-0.04079646141306778
-0.10686567268491706,-0.04446049778056553
-0.1087125406578507,-0.04378535340849109
-0.3122183461839491,0.016330003811793375
-0.1165224520971901,-0.04093472545436482
-0.11066415559709551,-0.043070326090019886
-0.09894980455521196,-0.047347685727407565
-0.09696807091000861,-0.048074318248558144
-0.10480795762270026,-0.045211691101157095
-0.10276168119454582,-0.045959379703582576
-0.1009974798931221,-0.04660223090849995
-0.31181969111036706,0.014376850439351559
-0.09594131900479956,-0.04845445737026571
-0.31240511622207784,0.012423767092089387
-0.31464596482191654,0.01047080154144699
-0.31445199151141184,0.010606692875750317
-0.3124987440079221,0.012328193537365986
-0.09117581528955497,-0.05018411834097096
-0.09246242827876226,-0.04972095039511511
-0.0872332149865632,-0.051618896424726515
-0.08918560389783821,-0.05090599510614474
-0.08542165463294224,-0.05228414982108225
-0.08332734224148124,-0.0530416914529878
-0.08534801972267461,-0.052310956670616617
-0.08127920724276183,-0.053776465629471595
-0.09504967558761704,-0.04878625816077929
-0.09309523714649237,-0.04949352968907939
-0.07548358556502502,-0.055885612540821014
-0.07746489030087658,-0.055165877637362304
-0.31640516912881167,0.009867317744827577
-0.0853904196526384,-0.052295748208800855
-0.07951320812014241,-0.05441512278027326
-0.07355562826334411,-0.0565793627227941
-0.07160293878297314,-0.05729143841740754
-0.0696903755315261,-0.0579923141243673
-0.0676995507970386,-0.058721058753882845
-0.06587587398603702,-0.05939980731193081
-0.06392000106564794,-0.060144220936276346
-0.06575220353103677,-0.059447808812271116
-0.32226461573328014,0.008861251785020032
-0.320311474737981,0.009085968062033895
-0.31835832747359494,0.009398785208798053
-0.3242177535920014,0.008680614653300566
-0.06216944859430609,-0.06079075319798498
0.26495794317954025,0.013067118700019732
0.26308747844856206,0.012384624644660107
0.26105366135964636,0.011639951213967999
0.25910149990274417,0.010926423935728572
0.2572337647300432,0.010243683647171419
0.2766749129240201,0.017337287269922518
0.27472194892835844,0.016625965437018664
0.272929384192263,0.015972666410231432
0.2787094520436577,0.01807813995877743
0.2805809909867505,0.018759518526652797
0.2961900318093169,0.024437475551770123
0.2944070053244714,0.0237889134448114
-0.3261708897802149,0.008523453535131176
-0.3262338524544693,0.008518501107416386
-0.061858813184348056,-0.0609048913554131
0.27081615465157144,0.015202954312189158
0.26881241596685523,0.01447262640041667
0.26691061537821775,0.013779242416062851
0.2630199709425668,0.012359931379423702
0.2551971352396771,0.00949948410981393
0.25324483584219,0.008786335904130218
0.2514564007665014,0.00813253850905727
0.24733990894571917,0.006628316904894783
0.24934034925915227,0.0073597311248145185
0.24651638627904493,0.006326831336980851
0.23763107294929,0.0030684203369128775
0.23958267301105363,0.0037834903771197695
0.23576673440201934,0.002385480482269724
0.29229983008425325,0.02302296657140043
0.2902934243965912,0.022293356184978887
0.28644042460610236,0.02089199255440093
0.2883936772367432,0.021602492577760576
0.28449911613144774,0.020185627903587376
0.28253408861770646,0.019470473118304726
0.2980937535968281,0.025129728138237953
-0.32812402238896715,0.008416595429863435
-0.05981798295646533,-0.061651913360320915
-0.05599768534792532,-0.06303271468069302
-0.05790839638538741,-0.06234199275280276
-0.05402069828045654,-0.06375621992805841
-0.05389107586997628,-0.06380450158450204
-0.04428316898522323,-0.06730962020343312
-0.04244804426225411,-0.06798840893537489
0.005725617820777261,-0.08123586613678715
0.005267943335150451,-0.08140173405466121
-0.004068511705868933,-0.08184225385388731
-0.0033511476828693943,-0.08210061350397056
-0.006187263259520646,-0.08108325207162108
-0.0052791773568914915,-0.0814080157604506
-0.0015958961404945538,-0.08273846808460035
-5.5492280939727465E-6,-0.08331827103244539
0.23177648087667585,9.226383048192639E-4
0.23372785047150052,0.0016383416879353027
0.23151964370988615,8.28055382564455E-4
0.24543696898886136,0.005930086103143843
0.24348571521105805,0.005214064444920733
0.2415514789013098,0.00450497950926908
0.29999679685086916,0.025821100405994793
-0.33398342262166825,0.008062202850443165
-0.3320302885502961,0.008189615460714103
-0.33007715515553615,0.008307519507801949
-0.3359365572146904,0.007927459361522456
-0.05805163767293202,-0.06229037315655243
-0.052098391324542206,-0.06447358059654781
-0.050150286365187785,-0.06519824937044147
-0.04823857346344522,-0.06589288183390277
-0.0462393339925996,-0.06660709132668202
-0.04038635192908194,-0.06875729002415348
-0.03835222017761726,-0.06951488603976738
0.009089490225722478,-0.08001886544991738
0.01027907599601929,-0.07959124064836494
0.011022915956954937,-0.07932680186885653
0.012144106318703678,-0.07893107164671201
0.007147281092071798,-0.08072126304545202
0.003341343825675553,-0.08210019956539774
0.001585301205642119,-0.08273847087197046
-0.007161537144425604,-0.08073782895236199
-0.008201923998007076,-0.08036831036643649
0.16529165073661103,-0.023271625916223414
0.1654565922585927,-0.023211389453892558
0.16590446075134066,-0.023048630693377294
0.22999402092431115,2.6338674135124114E-4
0.22787592655383415,-5.147726627411066E-4
0.22587936770946207,-0.001248863916981589
0.30167936312602717,0.026431482252534378
-0.33984282667814103,0.007654073891030023
-0.33788969197267205,0.007790397649023117
-0.037814821694014226,-0.06971950313429533
-0.03455107063573811,-0.07095611042090577
-0.03284198160125902,-0.07162351168114131
0.013003920096690392,-0.07863329773200325
0.013841171887938302,-0.07834127139787397
-0.00958342828085662,-0.07989311838373139
-0.00911274978247913,-0.08005569913932231
0.06574978425511767,-0.05947168316020683
0.06770240007858302,-0.05875940452025054
0.06391031499421915,-0.06014813706170144
0.05980646088056052,-0.061650789729125306
0.06184759573938874,-0.06090460322558294
0.058041817340194375,-0.062293924326110146
0.055990237631256344,-0.06304278395491304
0.05401248273235997,-0.06376418067686523
0.05208432043022014,-0.0644654572733627
0.05109893190202906,-0.0648251746047072
0.08541027997789158,-0.05238084711603803
0.08724921608826111,-0.05169338745771779
0.07696723403216635,-0.05541196715135251
0.07549394812928091,-0.055944604557036606
0.16143358269843733,-0.024704012961498163
0.16342092581828968,-0.023968637493615847
0.1507191028244547,-0.028636850086439805
0.15171367884109277,-0.02826552506167164
0.17133719842908282,-0.02111068485739608
0.17286008522279828,-0.020579975712220974
0.1692813993492765,-0.021839018213406933
0.1672226692792082,-0.022575873024556894
0.22397489631601608,-0.0019508757751379368
0.22202486822762663,-0.002670265732966027
0.2200944900132952,-0.0033815627932621333
0.21812400076937843,-0.004106816177585949
0.21777306860252413,-0.004236605831364577
0.21431572697512888,-0.005516710220697831
0.21617452491781375,-0.004827723729559903
0.20854812096090986,-0.0076509319072034475
0.21032607725881483,-0.006990391137123995
0.2064283162082916,-0.008435478256505563
0.20443797820078835,-0.00917866339547504
0.21227565406102092,-0.006269761006164901
0.3033593373507411,0.027060159846638697
-0.34374909600915016,0.007382549620554298
-0.34179596131198686,0.007518756667862893
-0.03659567871046762,-0.0701810384927949
-0.03259298150280272,-0.07172342181933004
0.015072188366147748,-0.07791665348717994
-0.011028343766252472,-0.07940871439490231
0.04243855190888506,-0.06799286876966422
0.044277277141262845,-0.06732397029990832
0.040375556786425466,-0.06875817691156452
0.03834242588632909,-0.06951853009198737
0.016046760202145814,-0.07758029715804618
0.016849672465931366,-0.07730733625078759
0.018897345555064633,-0.07659478848487697
0.0735670544470938,-0.05664127454004626
0.07161199542033289,-0.057346839047858714
0.06969606051319469,-0.05803845101729134
0.0501319563970186,-0.06517842785455405
0.04822434583910987,-0.06588433345141914
0.04623235830334096,-0.06661846662184845
0.0911941144227277,-0.05026492464406567
0.09311282884103804,-0.049572395028165864
0.08920153214925507,-0.05098028504479087
0.08334748153023211,-0.053127555037787426
0.08129775295714833,-0.053857945756120455
0.07747707915180674,-0.055229888993892744
0.15951826467089453,-0.025400258726646946
0.15756652627054413,-0.026114948600561953
0.15564303334301743,-0.026819863139627094
0.15366057003426326,-0.027537514646817314
0.1498695830599603,-0.02896709160425351
0.14577111721894231,-0.03047795803792519
0.14782077166120983,-0.029723951033776203
0.1440148610687787,-0.031141181128751173
0.141999172163914,-0.03190357979588364
0.19474319271684082,-0.012793163060334817
0.19289258484495442,-0.013495430828802496
0.17135528019744903,-0.021160375107262278
0.16981660417047711,-0.02178110415058475
0.20409468509355472,-0.009307665221018635
0.20058511055958056,-0.010612551157806823
0.2025337330230379,-0.00988929842214037
0.1986600480645236,-0.01133004422860427
0.3033595744974905,0.027060244972486866
-0.34765536555100945,0.0071080622736052436
-0.34570223084376384,0.007244410977256478
-0.021125088331986144,-0.07588905629494415
-0.021009599676960696,-0.07592458889306612
-0.018612739367776757,-0.07671003697396968
-0.01686520164897523,-0.0773194568404216
-0.03070200776388763,-0.0725349547365852
-0.015094148992901079,-0.07794648976398758
-0.013036949359024053,-0.07869377776439052
-0.011059623989679907,-0.07939849020407352
0.037439110716917606,-0.0698582669640806
0.019634109845018052,-0.07633732253183109
0.020984451838141648,-0.07588607821307433
0.022056189090387205,-0.07554959013571545
0.10132634190876498,-0.04661036465475558
0.10102776691798365,-0.046715978191573526
0.10485953908262799,-0.04538395589438153
0.1028035350170474,-0.046104913251127894
0.09897736768796629,-0.0474539475847425
0.09699227795495033,-0.04817135937739263
0.0950670940653143,-0.04886464908305738
0.07952912329140464,-0.054489372339940306
0.1165780225172811,-0.04111794707486576
0.1146241236790029,-0.04182669988010528
0.1127121222188183,-0.04254620758202078
0.1069248992158929,-0.04465377100606294
0.10877007211070464,-0.043973967264412786
0.1214106047826523,-0.03953600217739847
0.12052996656747918,-0.039821759484421945
0.1184597777050401,-0.04046932184780924
0.11849808877216163,-0.0404566756826136
0.16550642936094664,-0.023489987928205718
0.16555138037329897,-0.0234718753205738
0.14198113275610375,-0.03191082565233647
0.1400070547393364,-0.032674615838408104
0.1916705091459623,-0.013969150047019135
0.18891279838662395,-0.015005442563352546
0.1908588229398045,-0.014275050547493177
0.18713986140592767,-0.015668562476746535
0.196689745964168,-0.012064223941333092
0.16933130020074538,-0.021976150031918516
0.1672961752770097,-0.02277787380918047
0.1850179526638881,-0.016458541253489833
0.1830299896677383,-0.017200239422065423
0.17725243911046726,-0.019352242653681014
