"Plane Section: Position[X] (m)","Plane Section: Position[Y] (m)"
3.5,1.413230105097562E-4
3.2700000000000005,1.4325930334520265E-4
3.04,1.482714287433588E-4
2.8100000000000005,1.56138323522819E-4
2.58,1.678801155372058E-4
2.35,1.8920648090048472E-4
2.1200000000000006,2.1731670911652858E-4
1.8900000000000001,2.532633981895076E-4
1.6600000000000004,3.0902640001089724E-4
1.4300000000000002,3.9135747819711087E-4
1.2000000000000002,4.760791666855419E-4
1.1760000000000002,5.201813778627749E-4
1.1520000000000001,5.36108218837486E-4
1.1280000000000001,5.570743969116858E-4
1.104,5.793606200530088E-4
1.08,6.019075125415846E-4
1.056,6.251693757786958E-4
1.032,6.480236819514018E-4
1.008,6.750191451205047E-4
0.9840000000000001,7.035630266547025E-4
0.96,7.30723217608909E-4
0.9359999999999999,7.6240487997578E-4
0.9120000000000001,7.98194579846535E-4
0.888,8.347307954842344E-4
0.8640000000000002,8.740032359946902E-4
0.8400000000000001,9.183493657060134E-4
0.8160000000000001,9.657001201719597E-4
0.7920000000000005,0.0010192078730419693
0.7680000000000007,0.0010766858167263686
0.7440000000000007,0.0011398605213854105
0.7200000000000005,0.001211028443132388
0.6960000000000006,0.0012937971150844558
0.6720000000000006,0.0013905522349693163
0.6480000000000006,0.0015009019699075098
0.6240000000000003,0.0016326295633371252
0.6000000000000003,0.0018075259926981393
0.5760000000000003,0.0020753112474421825
0.5520000000000003,0.002519502375878977
0.5280000000000001,0.003266075320216778
0.5040000000000001,0.0039477187084338075
0.5024169586998786,0.004000000000000671
0.4681305225009772,0.004000000000000524
0.4560000000000002,0.003256236693315374
0.4800000000000002,0.004751495700511822
-0.468469458335,0.003999999999998868
-0.45599999999999996,0.003226797503026127
-0.4800000000000002,0.004756592131889119
-0.5045869415688768,0.003999999999999009
-0.528,0.003318555966246654
-0.5040000000000002,0.004019632806115069
-0.5519999999999998,0.002545543795355638
-0.5760000000000001,0.002097481289572267
-0.6,0.0018217078098159
-0.624,0.0016391300645612948
-0.6479999999999999,0.001502936632076721
-0.6719999999999999,0.0013940039936902484
-0.6960000000000002,0.0012951904101588154
-0.72,0.0012125098927784905
-0.744,0.001141162985643388
-0.768,0.001075564478174869
-0.7919999999999999,0.0010184810250539827
-0.816,9.654415636090074E-4
-0.8400000000000001,9.174476857399778E-4
-0.864,8.737816113133718E-4
-0.8879999999999999,8.339642680041816E-4
-0.912,7.966078313342586E-4
-0.936,7.624131434191815E-4
-0.96,7.302020387178982E-4
-0.984,7.015178619916472E-4
-1.008,6.743446830617467E-4
-1.032,6.486909731855877E-4
-1.056,6.242197962814688E-4
-1.08,5.993422525135416E-4
-1.104,5.770144854880652E-4
-1.1280000000000001,5.548400381322974E-4
-1.1520000000000001,5.411418951260128E-4
-1.1760000000000002,5.232723290339851E-4
-1.2,4.7335420328499165E-4
-1.4299999999999997,3.903362815534518E-4
-1.6599999999999997,3.0852421690374075E-4
-1.89,2.539779956927356E-4
-2.12,2.162007384226409E-4
-2.3499999999999996,1.8914158754572646E-4
-2.58,1.6845403423081215E-4
-2.81,1.5607742937988204E-4
-3.04,1.488008177846159E-4
-3.27,1.4348947082606987E-4
-3.5,1.4157278675391697E-4
-0.25721683466082806,0.021704875964770665
-0.2583224188693803,0.02210708648577337
-0.2825291746383021,0.03089864946374859
-0.28315852263581887,0.031127036423316764
-0.28057534971506815,0.030189692928706546
-0.2551791663512286,0.020963531117879727
-0.25322593933842946,0.020252932000941665
-0.2514365627131378,0.01960172205634203
-0.26103915345698053,0.02309448763928794
-0.2590856988756616,0.022384513699472645
-0.2787029825968355,0.0295105895935927
-0.2708064699088509,0.026644237710604056
-0.27265340305196034,0.02731543637288666
-0.2688021093092754,0.0259156186292834
-0.2630071937842673,0.023809711865668257
-0.2649461544603031,0.024514183213829612
-0.2864384366966877,0.03231213246064025
-0.28839333205312945,0.033018135377607484
-0.28449548946508146,0.03161026799258409
-0.227834155994839,0.011014682437258597
-0.228479532090428,0.011249563644581422
-0.2258352296363665,0.010287097337357786
-0.2357342023970414,0.013889547340532944
-0.23760002621093357,0.01456840561316543
-0.24731787493531693,0.018103534903289958
-0.24931949389237257,0.018831710197354842
-0.23955324407976164,0.015279029850465916
-0.2766675028611698,0.028772321078199777
-0.2729203482807787,0.027412167165128776
-0.27471360827249786,0.028063555928319817
-0.2668996210556761,0.025224124148583014
-0.29441474785366556,0.0351824859769666
-0.2958015299062915,0.03568293035672742
-0.289982883834068,0.033592651021360234
-0.29230405935797715,0.034426280585719636
-0.2902946827700923,0.03370467512904186
-0.3000172566819653,0.03718544077013119
-0.3005105955797662,0.0373574124055946
-0.21425274372667752,0.006071039371242143
-0.21611551426219963,0.006749108803282303
-0.22392793140672848,0.009592853891801645
-0.2219748239475473,0.008881926336689513
-0.2200416706729021,0.008178255409413245
-0.21806861544603354,0.007460053598060238
-0.23369362980631597,0.013147049082701884
-0.23174044444863232,0.012436335530659925
-0.22995469984262043,0.011786110563975495
-0.24541300902323787,0.017410596696938244
-0.2434597527415152,0.016700077987695752
-0.2415237336877696,0.01599589206509887
-0.2961992809061723,0.03582604519426051
-0.29810524824540646,0.03650664508720074
-0.3017200127373367,0.03776352111136129
-0.20922442583208772,0.004240580682069561
-0.21025622465183869,0.004616236119804202
-0.21220931851328087,0.00532720103068087
-0.30203945896427614,0.03787074659436576
-0.20847409592500973,0.003967161675983958
-0.20435385015978239,0.0024671942287776073
-0.2063500835526898,0.0031941782131562637
-0.30310966337790546,0.03823756606287626
-0.18990238206097892,-0.0027982485381242367
-0.19072690395860198,-0.0024978577483900015
-0.2004911980182986,0.0010601954505861384
-0.2024441237485502,0.001771622252132954
-0.19856099348667128,3.568333831581338E-4
-0.1927730620226537,-0.0017523039805823473
-0.19463265048487205,-0.0010747158695580009
-0.3035187339108865,0.03837851313400784
-0.18486853318322866,-0.0046332546589763195
-0.18287496602390263,-0.005359551896218872
-0.18877407329024917,-0.0032095457043627732
-0.18699592382692665,-0.003858340803435584
-0.19658551131087604,-3.631107628173517E-4
-0.3037714802230749,0.03843450965891543
-0.17708232689468104,-0.007470089781342944
-0.17900989343359083,-0.006767912642390083
-0.17315110641406106,-0.008902166045374532
-0.17510402270232506,-0.008190713304769705
-0.171294460112833,-0.009578565817558324
-0.18096275174870538,-0.006056300637718704
-0.30429319213043127,0.0385420215248249
-0.1692452861380639,-0.010325105318658875
-0.1671907759250136,-0.01107355645574377
-0.3043073240774551,0.03781909513193619
-0.30251576928515495,0.03658724830776162
-0.3006351783593638,0.03593019057863026
-0.16685611763979682,-0.011195458398877743
-0.16139568662892756,-0.013185199698738128
-0.16338662281779612,-0.012459698548751345
-0.2949287838267484,0.03377890181158347
-0.29671913867921057,0.034439145724550355
-0.2908398145126647,0.03220719275493456
-0.29284407154109976,0.03294383569916427
-0.28704012994364914,0.03065915925307931
-0.28897379414851737,0.031423499669808855
-0.2850990437415766,0.029952181309736085
-0.28318399247080717,0.02909973133814547
-0.28177374015563017,0.028526708475278065
-0.29864776170118257,0.035176476266512484
-0.15166942805003497,-0.016729247290322994
-0.14981584903385303,-0.017404752835042083
-0.15948085215540503,-0.013882774120725083
-0.15752797528630974,-0.014594335153834157
-0.15560323174525914,-0.015295812624551883
-0.16542728241930843,-0.01171617237999106
-0.28125007403151003,0.02830600242446123
-0.14571167610692254,-0.018899935288746752
-0.1477636129531874,-0.018152200791796705
-0.14190511466319783,-0.02028724739371069
-0.14394795455759588,-0.01954264259460465
-0.1536222500047565,-0.016017535396236016
-0.13991697864554395,-0.021012404540455516
-0.27945055292064985,0.027656839545237104
-0.13799958334556858,-0.021710980494569137
-0.13631160595255729,-0.02232618909107668
-0.13018993147938873,-0.02456232236664215
-0.12833994131766435,-0.02523831512995545
-0.2793743377240946,0.027557853135815883
-0.2773438871547282,0.02633229152980281
-0.27496795858991935,0.025705954295599565
-0.27539077707049664,0.025865894886747738
-0.12628493550098932,-0.025987526153541805
-0.13604679170045525,-0.02242277565533222
-0.13412543343786665,-0.023125074535690383
-0.13214236355833348,-0.02384953940428456
-0.27389233689761344,0.023800707208689032
-0.27284055892999326,0.021847548568667947
-0.27343774136515264,0.02307392329047115
-0.12423602987711935,-0.026735794045880917
-0.2714847003373222,0.020448367665306572
-0.27103406506365596,0.01989436579056107
-0.12247252518021962,-0.027379823638584114
-0.12069941275064333,-0.028027625114466798
-0.12042808730234712,-0.02812710589287585
-0.1184320745080239,-0.02886058019663971
-0.10686767775490849,-0.033081835378135006
-0.10871461707178304,-0.03240688669768553
-0.2695316384712588,0.018474352807033682
-0.2690313001000498,0.01794117673511189
-0.11457243056451585,-0.030269958818048934
-0.11652475662954974,-0.029556884613862355
-0.11265366914567489,-0.03097088883688196
-0.11066740354119256,-0.031695077318203896
-0.0981385757292815,-0.036267660802534185
-0.09895200504520892,-0.03596956078466805
-0.10480929884172846,-0.033831205193561475
-0.10276210459293546,-0.03457637265528031
-0.10099824257907702,-0.03522015602028242
-0.26757857799047696,0.01645702487044422
-0.26715318815564876,0.015987991666440854
-0.0969706143866037,-0.03669713612223634
-0.26566940669371986,0.014034819209649494
-0.26479498437545446,0.012081666241994641
-0.2656255335337773,0.013938678384073405
-0.08723240691855524,-0.04023250700924677
-0.0891868187482484,-0.039525162825938105
-0.08623443681211315,-0.04060084420513056
-0.08332761931336974,-0.04165828323985169
-0.08355885948287699,-0.04157477162281887
-0.08127961014355188,-0.04239340193107567
-0.09504849292425062,-0.0373988410305637
-0.09309661419323298,-0.03811314415252652
-0.07548369779971911,-0.04450175025607587
-0.077464493700526,-0.043780617642217606
-0.06390536522837861,-0.04871984797788341
-0.06574378892105301,-0.04804052366581254
-0.2647894835063096,0.010128541065062982
-0.0893704701765969,-0.03945930781854319
-0.09117940231269674,-0.0388098031846896
-0.08539310679916268,-0.04091896150847343
-0.07951444192828563,-0.04303434129997697
-0.07355714935618365,-0.045199369988950105
-0.0716033786379019,-0.04590847543605488
-0.06968916219435126,-0.046604809987374506
-0.06769660894021462,-0.047328806454340684
-0.061875507458243155,-0.04946765171767633
-0.26562570402219104,0.00860808501976349
-0.06184418522047523,-0.04948054113953852
-0.265843090035887,0.008175449761571286
-0.059813250322560796,-0.05025474807525362
-0.2680718698977881,0.00622239604365797
-0.267578890825229,0.0066757452823143675
-0.058049264219966645,-0.0508996885339902
-0.055997400521875455,-0.05164776736579659
-0.05534477352955849,-0.05188649910699711
-0.044289816832042445,-0.05594371969846851
-0.04245466237174651,-0.05662242789291737
-0.0018953469937638351,-0.0712422436742062
-0.0015942259595931605,-0.07135126789773359
-3.2797050446478813E-6,-0.07192900814694997
0.25912893965333544,0.02224767787267512
0.2610831283686571,0.022955634415004776
0.2572592987884242,0.021570174279565826
0.23764067854891197,0.014438682883130818
0.23959342507938414,0.01515060218996584
0.23577547747686173,0.013758113514383087
-0.2721140309669965,0.004269400323137278
-0.271485208695744,0.0045537273443711015
-0.2695320540920653,0.0054793025696560325
-0.05402028061341203,-0.052370908083543305
-0.05209637530257947,-0.05308387963772027
-0.05014982482430585,-0.053812820556576414
-0.048243078417366,-0.05452109685571947
-0.04624630174694407,-0.0552420707029938
-0.04039189915523878,-0.05738836902334976
-0.03874598943655996,-0.057990990784533986
0.007150980199729694,-0.06933490089802846
0.008286091013398132,-0.06892651536557126
0.003348226368484738,-0.07071124127304615
0.00334443392171844,-0.07071261616971214
0.005271416937132538,-0.07001490569304306
0.0015881144857785754,-0.07135109530006306
-0.004750630609121198,-0.07021523329256296
-0.0033504956459585334,-0.07071570462806556
-0.006165981248505371,-0.06971853345102412
-0.005280732268189968,-0.07002891592381297
0.08539669683846664,-0.04094686184765769
0.08723684183388648,-0.04026272586854253
0.23178343723973044,0.012300181931870132
0.2337356812890921,0.01301348193155472
0.22999899153180198,0.011646387870056021
0.22787935523966177,0.010872466074610575
0.22588181643347244,0.010141068320659044
0.26499174422521454,0.02437089236467053
0.26305195919422375,0.02366868635863763
0.2552208380578663,0.02083100686171029
0.2532669051790571,0.02012234734441136
0.2514774214207217,0.01947143178700579
0.2473575799814166,0.017976414765058155
0.24935948983394712,0.018703790688566767
0.24545258491573163,0.017283831506769876
0.24349936053396987,0.016573225216179717
0.24156357751656238,0.015868390806705046
0.276682987775843,0.028601960786075874
0.2747637790399381,0.027907676625952192
0.2729699463850216,0.02725786162777211
-0.2734383546378556,0.0038989698966644414
-0.032959789452431325,-0.06019084561966761
-0.0345487781774704,-0.059565660237896105
-0.038354026520130396,-0.05813568991050111
0.009095365669438981,-0.06863844155720167
0.010181437261276289,-0.06825523089197638
0.011034440459422205,-0.06796186571611476
0.011585977999851043,-0.0677718154865121
-0.0071692610495734145,-0.0693755528359305
-0.007503786928650402,-0.06925930893879793
0.06770625560955357,-0.047373343427681715
0.06575203527573491,-0.0480812130902569
0.06391143220485174,-0.048754550805701125
0.05980668466311424,-0.05025474756388085
0.061848409843827015,-0.04951018348301543
0.058041650725589145,-0.050896809343449104
0.05599021711081972,-0.05164607015875127
0.05401292183666686,-0.052368729635359934
0.05208593049082617,-0.05307322377145686
0.05163791808335702,-0.053237169251727154
0.0914269608026415,-0.03875658319179276
0.09118515599385985,-0.03884364812424688
0.0891927260029822,-0.039559428010612435
0.0838783653352818,-0.04150377384596262
0.08290130088860795,-0.04185936083271154
0.0812906996471626,-0.0424419049304331
0.07549509423248357,-0.04455109641085578
0.07747593728199619,-0.043830093317930696
0.15125011861015333,-0.017047326871179297
0.15171668815491854,-0.016877130290775973
0.22397597893325263,0.009442811147068061
0.22202442544571097,0.008727613655616749
0.22009302316996304,0.008019131409146285
0.21645416206778562,0.0066826424423768295
0.2181218993554778,0.007295622545924718
0.21431061294818482,0.005894008997981277
0.21617098401904072,0.006578671574292838
0.20853963218855706,0.003769064072868076
0.2103190981821713,0.004425455119924584
0.20442451354520383,0.002255008516311759
0.20641797937354175,0.0029895971511648203
0.2005672211132541,8.332823973919684E-4
0.20251745432510737,0.0015521076773651861
0.19863995826096786,1.2183718332577689E-4
0.21226962006501135,0.0051434872039791855
0.27085502215129187,0.026492806197309066
0.2688497042746443,0.02576681763446851
0.26694615218340634,0.02507824648223457
0.2767183128127209,0.028614685036369474
0.27875543111105805,0.029348450735504364
0.28062858936875407,0.030025379797799845
0.2962458813408938,0.03568513274344201
0.29446170053829673,0.03503621993484146
-0.2800980954279072,0.002316530676540409
-0.2792977744708504,0.0024972881455042374
-0.2773446355410615,0.0029327940658914354
-0.27539149585826256,0.0033918440557422656
-0.28515717791579404,0.0016080049899900761
-0.28320404460323145,0.0018678793468207295
-0.2812509107287948,0.0021453216035125767
-0.036591782746687083,-0.05878617984098873
-0.03259234315541028,-0.06033752168273338
0.013021746398174178,-0.0672856413685956
0.01333600312078775,-0.06717653893701736
-0.009120287820697176,-0.06871251026521533
0.04243984335059449,-0.05659975793075051
0.044276724847984325,-0.0559257933114449
0.040376135995268306,-0.05736310746698295
0.038341192709889296,-0.05811847846060769
0.02115399052127412,-0.06439373307016139
0.020972049105312654,-0.06445532995899078
0.016858226728799684,-0.06593418162576757
0.01889630887435447,-0.06519527677781352
0.0735688724875803,-0.04524961319976663
0.07161478564567303,-0.04595784966484334
0.06970016771265838,-0.046653080955820006
0.05013468722897051,-0.05378927368577014
0.04822557980372072,-0.05449106500445602
0.04623126983584484,-0.0552188157172603
0.09310715656075573,-0.03816014741060798
0.08333729499739842,-0.0417029032249626
0.07952572856281598,-0.043083385697167666
0.1419761873125192,-0.02050056204834473
0.13999033463697788,-0.021231993519858425
0.15271241691335477,-0.016515146778930297
0.14986748226559823,-0.01756465224892434
0.1478265942722071,-0.018343282008078023
0.14578052560979401,-0.019107140968167926
0.14401700525595199,-0.0197504012435554
0.18887180599053704,-0.0034961122307325624
0.1908206672864457,-0.002773517267683866
0.18709722388305583,-0.004154709816010502
0.19666875857998695,-6.098743540242046E-4
0.19644941784632658,-6.914029492811711E-4
0.1928633188443724,-0.002018328352105014
0.19471954378198847,-0.0013314979814259146
0.18497452251269647,-0.0049425087325923175
0.182986257714583,-0.005683375659565935
0.2903462759843054,0.03354480166455776
0.2923533218605435,0.03427276514339591
0.28649176075813554,0.03214758358470371
0.2884458487510765,0.03285579058500883
0.2845494023888091,0.03144410355646094
0.2825831314363504,0.030732365416140568
0.2981543880924893,0.03637739324338028
-0.28906344347316926,0.0011216411491870209
-0.28711031088131844,0.0013589813248146715
-0.0204013899883616,-0.06466854339261993
-0.01890103484723893,-0.06519021407141723
-0.02225843782891839,-0.06408620668383055
-0.020985266977102617,-0.06447359386833987
-0.01686300061755065,-0.0659292497720762
-0.03068878736442799,-0.06111450239210675
0.01508968280502357,-0.06656806993035139
-0.015099427202144881,-0.06657682823154729
-0.013042538798290787,-0.06732497435866906
-0.011065993172727908,-0.06803184571887548
-0.009126838324864802,-0.06871049569420191
0.03657716590836572,-0.05876407067123508
0.034560276425256616,-0.05951472961822231
0.023283244293922083,-0.0637124637093274
0.022830800156029084,-0.06385111821039045
0.1048673182221033,-0.03400866013295945
0.1028156370646456,-0.03474149869673108
0.09814941627913654,-0.03637247865662364
0.0969949813524826,-0.036782124878586245
0.09506594996443712,-0.03746484340419774
0.13807418759295995,-0.021933999493450592
0.13790016131989907,-0.021999468937647922
0.10586658655811489,-0.0336575764075438
0.15367418579318742,-0.01617826584398117
0.1553549406096223,-0.015647081034140378
0.18108004697231606,-0.006396620746729593
0.17952197838493045,-0.006992331721528676
0.17721630919962644,-0.007856262082039312
0.17913761851819393,-0.007136891555653382
0.3000709384351331,0.03706740046325417
-0.2929697049290122,7.635183109758239E-4
-0.2910165751292851,9.135582559384762E-4
-0.022875004710095043,-0.06395449614670971
-0.030002729544883026,-0.061407695552467716
-0.023284268797589075,-0.06385325862962171
0.03452816504329105,-0.059527081049275
0.03257600191177053,-0.060310691091069756
0.024719511470141703,-0.0633302149992359
0.10104485109402431,-0.03536625706892563
0.0989875056755461,-0.03608514094966027
0.1243433858125437,-0.027048809207626444
0.1263928822007429,-0.0263021641442356
0.12264505700663961,-0.027691778065434183
0.13613792301625433,-0.02269120710120918
0.1342237925751104,-0.02341336675745477
0.13029288403941108,-0.024863237020401805
0.1322408494968516,-0.024138180516521418
0.1284488796785374,-0.025555677738530954
0.10695134537094034,-0.033329765244614284
0.10880890177016629,-0.03268398918255322
0.12258753149241658,-0.02771386050965223
0.1205454835534667,-0.02846771027717822
0.11854944189647813,-0.029201106501225767
0.1643689220943924,-0.012717730987506955
0.16560510206420817,-0.012222799466533988
0.1537222897115194,-0.01631044342194777
0.1520778435760421,-0.016980185883907678
0.1508700928586727,-0.017630414105702288
0.15180637974001435,-0.017123580411533616
0.17524424466459224,-0.008594030730469476
0.1732975447287758,-0.009322564572333995
0.1714468515864287,-0.010015322253072183
