"Plane Section: Position[X] (m)","Plane Section: Position[Y] (m)"
3.5,5.691846101819191E-4
3.2700000000000005,5.773777802441098E-4
3.04,6.002884525448817E-4
2.8100000000000005,6.332141612222027E-4
2.58,6.862124868235343E-4
2.3499999999999996,7.74716390094569E-4
2.1200000000000006,8.924856066450902E-4
1.8900000000000001,0.001054100702409262
1.6600000000000001,0.0013047185403754985
1.4300000000000002,0.0016816016670211942
1.2000000000000004,0.0020857748683502666
1.1760000000000002,0.002308169546394505
1.1520000000000001,0.00238928638830417
1.1279999999999997,0.0024771547581456718
1.104,0.0025772492578559243
1.08,0.0026820310076520757
1.056,0.0027897196597682066
1.032,0.00291210522798042
1.008,0.0030497156242673094
0.984,0.0031919808730233212
0.96,0.003353936629280029
0.9359999999999997,0.0035421306447569537
0.9119999999999999,0.0037497244986997923
0.8879999999999997,0.003983195882240113
0.8864580516187159,0.00400000000000001
0.8640000000000001,0.0042421686235174505
0.8399999999999999,0.004522720190408364
0.816,0.004813253179109071
0.7920000000000003,0.005144852315643248
0.7680000000000005,0.005501933673690342
0.7440000000000004,0.005898308661895171
0.7200000000000003,0.006344272453913023
0.6960000000000004,0.006818106433409489
0.6720000000000002,0.007440259154838721
0.6480000000000001,0.008132268520860833
0.6240000000000001,0.008907764408990791
0.6000000000000001,0.009914682287630816
0.5760000000000001,0.011277254623353529
0.5669457756267533,0.012000000000000066
0.552,0.013194648090175853
0.5280000000000001,0.014993838335688344
0.5040000000000002,0.01616676854353067
0.4800000000000004,0.018198806109278636
0.4563009669928677,0.019999999999999008
0.4560000000000004,0.020022865048942396
-0.4566880346404548,0.01999999999999752
-0.4800000000000001,0.018201127703299354
-0.5040000000000002,0.016212458581027163
-0.45599999999999985,0.02005294778728821
-0.5280000000000001,0.015034035597055625
-0.5677466396881216,0.011999999999998422
-0.5760000000000004,0.011347452141413684
-0.5520000000000002,0.01323663152448832
-0.6000000000000002,0.009943415867112141
-0.6240000000000002,0.008912728244514168
-0.6480000000000001,0.008102819332120443
-0.6720000000000002,0.007436910746710482
-0.6960000000000002,0.006828117519490522
-0.7200000000000002,0.006317114641880692
-0.7440000000000001,0.0058792636378387185
-0.7680000000000001,0.00548162309824864
-0.792,0.005123348888209254
-0.8160000000000001,0.004795437024791795
-0.8400000000000001,0.0045003323022019875
-0.8855310891723827,0.0039999999999995525
-0.8879999999999999,0.00397353214829738
-0.8640000000000001,0.004228700829765232
-0.9120000000000001,0.0037378916894525676
-0.9360000000000002,0.0035408527780114874
-0.9600000000000001,0.0033619648000580275
-0.984,0.0032013586707450806
-1.008,0.003059045014137067
-1.032,0.0029268729579751953
-1.056,0.002804207181463671
-1.08,0.002689714401628838
-1.104,0.00258697661117075
-1.1280000000000001,0.0024878629050570956
-1.1520000000000001,0.0023967250120537457
-1.1760000000000002,0.0023120307543455475
-1.2000000000000002,0.002092597534742984
-1.43,0.0016854315596508702
-1.6600000000000001,0.0013058215866865468
-1.8900000000000001,0.001057309545789286
-2.12,8.891378845344676E-4
-2.3499999999999996,7.714273330735638E-4
-2.58,6.896530836682364E-4
-2.81,6.365061088458111E-4
-3.04,5.987049132113931E-4
-3.27,5.768580613767176E-4
-3.5,5.723606873299719E-4
-0.3476585349735617,0.04011161792041072
-0.3460518762270267,0.03736353140807855
-0.35130151645668795,0.04517665615580746
-0.34844840544016886,0.04127006661596625
-0.30164787298086165,-0.005202304129102462
-0.29998098930817507,-0.005808984470284916
-0.3437799784452065,0.033457011030979714
-0.3515641470727914,0.045472487646042545
-0.29440063076980044,-0.007841347017744079
-0.2961826699036501,-0.007192521708793887
-0.29229399734372924,-0.008608357566847118
-0.2902878479420702,-0.009338795566475513
-0.2883883448794874,-0.010030408521371747
-0.28643530275796025,-0.01074150237390994
-0.2844941431161241,-0.011448277678638666
-0.2825292148459433,-0.012163705341071284
-0.28057617358835707,-0.012874814743102432
-0.3033489298883566,-0.004581451397455895
-0.2980819460777559,-0.006500891646063896
-0.3437530833041249,0.03340256674053534
-0.34312065134918274,0.029550682545259246
-0.3541416488390624,0.049083244151227466
-0.27870465389473525,-0.013556246104003033
-0.3034378736600097,-0.004549096383225311
-0.3421710910122942,0.027597444536425632
-0.3554697740881956,0.050708008459124335
-0.3573283130966268,0.052989873382961905
-0.26104576737126167,-0.01998592622759593
-0.25909273280480616,-0.02069705400656746
-0.2572241389856181,-0.02137743454736759
-0.27667009296349504,-0.014297038738850841
-0.2747170519004253,-0.015008148675115462
-0.27292430899916054,-0.01566095795515187
-0.2708109714786604,-0.01643037322865662
-0.2688069886636948,-0.01716003013853139
-0.26495185056555454,-0.018563709288692817
-0.26301337349564535,-0.01926950918089547
-0.30355177144195294,-0.00451031434460098
-0.3418007041805494,0.027134433309273603
-0.3407447614310403,0.0256441497933902
-0.33910171288277385,0.023690829261409745
-0.3398478758642145,0.024641118132881945
-0.3593754642473922,0.05541289664078917
-0.2551866547093552,-0.022119284949239065
-0.25323361699572855,-0.022830404084627505
-0.2514443802217259,-0.023481998178520647
-0.26690489275013357,-0.017852602432603944
-0.3035800985677568,-0.004504210444371357
-0.385157625136459,0.049086934965163254
-0.38411653502729287,0.0451805610507143
-0.3378950203414051,0.022376434237520965
-0.337363497604371,0.021737497404854998
-0.3356350772352459,0.01978416671386683
-0.33594215836000885,0.020166025415053645
-0.38606672163087075,0.052993293172741894
-0.36074335887110287,0.05689652979145854
-0.23574369130957823,-0.02919876438092857
-0.23760934185225965,-0.028519430128847167
-0.24932755489039327,-0.0242526789434492
-0.24732613872472548,-0.024981411321636927
-0.239562379171102,-0.0278083099092011
-0.30383509754744453,-0.00441560575354148
-0.3336566398648724,0.017830806271562027
-0.3339892693275391,0.018182941935638682
-0.3843881510097864,0.04322746835842435
-0.3867193745161504,0.05406769527352205
-0.38866952942058014,0.05689985292720451
-0.36328119509856344,0.059775827316754085
-0.36439531963268224,0.060803214392170096
-0.23175025156108986,-0.03065285029081336
-0.23370328676765437,-0.029941724269882942
-0.2299645379898942,-0.03130316046605113
-0.22784420447653397,-0.03207516640367074
-0.22584536626566876,-0.03280299362986732
-0.24542147857700436,-0.02567491478049699
-0.243468445967786,-0.026386047934933037
-0.24153267279159463,-0.027090909301744914
-0.3041194501006922,-0.004316924533004747
-0.3320363825494102,0.01618091394552173
-0.3317941098109002,0.0158774596218945
-0.38510965433147537,0.041274429201459815
-0.384767705400537,0.04183296730023154
-0.3906250547964726,0.058855601158498874
-0.36718701198501263,0.06341575541186842
-0.36922663299987146,0.06471003933252321
-0.21426333424609106,-0.03702029833355323
-0.21612602350076182,-0.03634200564707134
-0.22393813830482562,-0.03349743009442222
-0.22198510240347563,-0.03420855420714564
-0.22005204043381915,-0.03491247592495385
-0.2180790631690775,-0.035630891880160595
-0.30435572325145155,-0.004237641043540034
-0.3300834851766272,0.014267918746759357
-0.32972448275318855,0.013924088328270492
-0.32741390790248487,0.011970688362536317
-0.32813055106878886,0.012663628833747036
-0.38672102581864,0.04019087574870725
-0.3931756211023959,0.06080663916708971
-0.3710929394975665,0.06612603040338243
-0.37499892197139195,0.06837443510478267
-0.2084848198122508,-0.03912454228772007
-0.2102669650976632,-0.03847551338836956
-0.20570056674309017,-0.040138433579121724
-0.20636095176932914,-0.03989792221134426
-0.21221999704237401,-0.03776437840888727
-0.30461568222452495,-0.004151563955350043
-0.3261776444577388,0.010828268015345095
-0.3252836888710962,0.010017309858636577
-0.32292963363025606,0.008063904718860574
-0.3242247180218123,0.009159506733343599
-0.3883786839661431,0.039321693192964136
-0.3945309498627668,0.061838540188892996
-0.3984369438155443,0.06399048076085238
-0.3754519140300972,0.0686170301511125
-0.204364862664632,-0.040625302419315674
-0.3048014199845883,-0.004096795891736613
-0.320530676383676,0.006110494235870785
-0.32227179063076855,0.007498771813496161
-0.38867426168917985,0.039259284721411686
-0.3999621345028668,0.06471369677074951
-0.38281099864265766,0.07193236831545592
-0.38458701098026826,0.07252436722960484
-0.37890486917168553,0.07091926298904903
-0.20245521072512573,-0.04132107885190531
-0.20050236625407533,-0.04203272872036833
-0.19857237677120915,-0.042736681252962594
-0.19278471138748296,-0.04484654891586628
-0.19464418474748948,-0.04416864482319842
-0.1925210126787513,-0.044942655874274116
-0.305100385080673,-0.004010016875636093
-0.3055050751557418,-0.003881465011553756
-0.30543149972383077,-0.003899372404320843
-0.32031885170914853,0.005934934826325594
-0.3183659004549807,0.004474735131496557
-0.3179626346410973,0.004157063632296076
-0.31530913420988754,0.0022036228593827305
-0.3164129501294744,0.003006731351330053
-0.3906274144317352,0.039026264695712076
-0.40234294580983454,0.06607484402610421
-0.40624902995037054,0.06746888633450313
-0.3867170871954334,0.07328933212518371
-0.3906232531471536,0.07399586929963574
-0.18488051956153367,-0.047728424408939894
-0.18288706424260004,-0.04845502868528119
-0.19073875606480617,-0.04559265935231029
-0.18878613406714725,-0.046304920235139185
-0.18700796041880255,-0.04695364856457118
-0.1965969850288693,-0.04345687358956238
-0.3056697055237668,-0.0038049610420637743
-0.31445999488253734,0.0015800850928333813
-0.31250701759422395,3.386648791549921E-4
-0.39644920276416074,0.03736952854817392
-0.3945336761292169,0.03892819654678368
-0.39258053235703877,0.03908583352444749
-0.4101551585944818,0.06848894021456314
-0.41073272522325055,0.06862122846840216
-0.39452944238460447,0.0745067233622922
-0.39843564433479994,0.07491074514673057
-0.17709456525946626,-0.050565951071147947
-0.17902198529936175,-0.04986337168253
-0.17316343229324038,-0.051998267476604416
-0.17511632991319742,-0.05128676357951411
-0.17130672312789633,-0.0526744944809795
-0.18097484103241912,-0.04915175274472475
-0.31237777731077876,2.501490223334648E-4
-0.3057845811475175,-0.0037583825749416357
-0.30664804629787046,-0.0030542315369707597
-0.30625469587901594,-0.003656829634787696
-0.3970656116620884,0.03541647688527444
-0.3964869964275258,0.03728711167897053
-0.41406121175284344,0.07014334311438848
-0.41796732666729125,0.07127877491445218
-0.4023418604696699,0.07519556521704525
-0.4062480932867749,0.0753401950466534
-0.4218734851132867,0.07204838689878285
-0.16925757274048336,-0.053421098638118475
-0.16907614076628902,-0.05348727211080561
-0.3105540354972631,-8.623456034369181E-4
-0.309163105503474,-0.0017033585283925301
-0.30860105289177553,-0.0020590826074647125
-0.3974029021711745,0.033463392008070775
-0.4140606099472224,0.07520065275604464
-0.41796690118110014,0.07485437364449637
-0.410154343114695,0.07534187352947504
-0.421873252581941,0.07400247801121754
-0.4245853370040973,0.0725291269178927
-0.16720358377226174,-0.054170981235200796
-0.16140911619441695,-0.056284331546793465
-0.16340000299089336,-0.05555869490731531
-0.39835331905673094,0.03151038009118122
-0.1516829955375878,-0.059828757183680165
-0.14982920430364266,-0.06050367971355444
-0.15949439733513812,-0.056982223386887826
-0.1575414897239254,-0.05769369984339984
-0.15561675504044542,-0.05839520145860638
-0.1654405403198445,-0.054814833068155044
-0.40234714631052676,0.030775684505936183
-0.4003939903027136,0.03103614432124891
-0.39844081610811655,0.03144943785856809
-0.1457247236119747,-0.06199801665630455
-0.1477768882701717,-0.061250908006706475
-0.1419177889779264,-0.06338430344758067
-0.14396084215714808,-0.06264028464121545
-0.1536359635119148,-0.05911744651207731
-0.13992933882218478,-0.06410859750033611
-0.40625347179758764,0.030141556811874082
-0.4043002958995467,0.030569165370180028
-0.4071660232248709,0.029558303764361575
-0.13801206974463914,-0.06480751999096765
-0.1360597367104366,-0.06552057450047714
-0.13574123972261964,-0.06563700797608307
-0.13020324516946213,-0.06766113202692728
-0.12835335370215842,-0.06833739525471336
-0.4101599644546567,0.028102605976149865
-0.4082067220099435,0.029089443467422434
-0.1262988459448446,-0.06908797392185109
-0.13413910351434088,-0.06622486407392623
-0.1321558126686733,-0.06694872146627853
-0.41097249306352096,0.027605631709742454
-0.12424962783054298,-0.06983538300948999
-0.1188668318365968,-0.07179956179543096
-0.12044063862451268,-0.07122381912822699
-0.4140664515568292,0.026110336027743188
-0.4121132118298557,0.027074334837300724
-0.12248550553242324,-0.0704777159032099
-0.11844390161639651,-0.07195530277895636
-0.41499468546150386,0.02565298532549454
-0.11458750041940771,-0.07337358645880819
-0.11653869666220645,-0.07265740979674029
-0.11267027773652091,-0.07407874198288025
-0.11087775452628078,-0.07473617106989132
-0.10688795041516867,-0.07619975066466748
-0.1087324362058486,-0.07551806408346949
-0.42009327737103663,0.023700467029765433
-0.4199261070311524,0.023753701671493585
-0.4179728987550681,0.024453401041814534
-0.4160196837480054,0.025209664762071794
-0.1106855504475034,-0.07480715512928196
-0.09505958086921948,-0.08049152747545191
-0.09602732068334968,-0.08014328830451661
-0.09897395352562867,-0.0790920772159086
-0.09698638735233667,-0.07980269025604453
-0.09310424464458443,-0.08119633384139671
-0.10483336732594115,-0.07695954555899301
-0.10278955772952234,-0.07771400886434857
-0.10102483299787755,-0.07835542241735569
-0.4218792924195416,0.02324634042592449
-0.09118633132462733,-0.08189106671174559
-0.08724157687761949,-0.08331992860779815
-0.08919638054596796,-0.08261365959711453
-0.08539565585812979,-0.0839881950410438
-0.08333555014297267,-0.08474230061087894
-0.08129531001236849,-0.08549875916293337
-0.4277387027990336,0.022949375315647867
-0.42578557789807303,0.022948426850378466
-0.4238324445808571,0.02301820488546776
-0.0798324269957081,-0.08603993009272902
-0.07748564444873228,-0.08690094590451905
-0.07550766118447882,-0.08762980331027177
-0.06577360569230721,-0.09118465451006579
-0.06392797822556365,-0.09184419154363171
0.27895202930458507,-0.013553324711553464
0.2805672192508628,-0.012964205905817596
0.2961725113562766,-0.007276512425690609
0.29439038307346377,-0.007927086072560874
-0.4296918352848303,0.02288658418481014
-0.07953443770687903,-0.08615149747943128
-0.07358383387664305,-0.08833489743106376
-0.0716316134624356,-0.08904826124692802
-0.06971946233814115,-0.08975026824648169
-0.06772877200349081,-0.09047938148355769
-0.06186166035497061,-0.09259077130527937
0.26494651514996037,-0.01866304841727292
0.26300855659469413,-0.01937027360911142
0.26174936822663303,-0.019830759052980183
0.26104256095644096,-0.02009111724336696
0.25909168046618464,-0.02080816567382586
0.2572239590113946,-0.0214909440790311
0.27666258324737353,-0.014390400780686298
0.27471009968522875,-0.015103043176190392
0.27291779251728787,-0.015757050266035917
0.29997551616766793,-0.0058900248313343935
0.2982072133853713,-0.006535274984068316
0.29228397529983724,-0.008695046250228183
0.29027818259890603,-0.009426329555559531
0.28642589516445927,-0.010829649288264454
0.288378768745259,-0.010118107680620268
0.2844849511999995,-0.011537015775162834
0.2825201113029262,-0.01225268624277776
0.2786961795404333,-0.01364695666414013
0.29807531549920185,-0.006583545648648288
-0.43359814754597625,0.02236360129790927
-0.4355163070079029,0.021749177313084178
-0.4316449822987831,0.022701704807076124
-0.05982202330129745,-0.09334106979022856
0.011001309589397355,-0.11102896101426762
0.011945742602963477,-0.11068735428021378
-0.004385917317302292,-0.11344358502726429
-0.0033644040702807067,-0.11381386137955635
-0.006813484612007347,-0.11256791675085555
-0.0052905682627517,-0.1131165767778697
-0.0016101919812459085,-0.11445344179393672
-0.00116819810261796,-0.11461517268646303
0.27080455122431574,-0.0165267301664615
0.2688008116463751,-0.017257055786567593
0.2668990715053864,-0.017950606093721067
0.255187213775281,-0.022234825903475232
0.2532349008994543,-0.022947937429473937
0.2514471341689048,-0.023603572169158593
0.30165310868768447,-0.005278366331736114
-0.43555134710719107,0.02173713785456475
-0.4375045367550774,0.021193981674596237
-0.44336396421766083,0.020753457780524717
-0.4414108306771447,0.020825112343406258
-0.4394576885841074,0.02096863850687911
-0.058064280180096794,-0.09400315569258443
-0.05751443275719319,-0.09420764281961042
-0.05204442236328744,-0.09619930096153796
-0.050153335888452895,-0.09688468106091919
-0.04824293486479031,-0.09758291672688142
-0.044306123076283385,-0.09905072224850937
-0.04311629000166441,-0.09951250771361184
0.012975463922807025,-0.11031665498054953
0.015034401201545994,-0.10957437800413258
0.009071292974194732,-0.1117303588307102
0.007130090252892947,-0.11243542091470016
0.0033243888913127725,-0.11381395127112623
0.004818558600560754,-0.11327225627990337
0.005250895611369452,-0.1131160133462075
0.0015692482440939535,-0.11445351385100178
0.0011364207008522011,-0.11461194868600205
-0.007170533273588422,-0.11244019350310593
-2.0744836469424118E-5,-0.1150376291210134
-0.009054160039462678,-0.1117644072963933
0.015469064164398163,-0.10941777550065934
0.01680248536027005,-0.10893923225227407
0.018677635385656415,-0.10826887936465433
0.17709916680107143,-0.05069261810027402
0.17902677409269696,-0.04999055268145531
0.25062020297042326,-0.023907688089234252
0.24733568279218557,-0.025121648247632775
0.24933417644772274,-0.024384883184389687
0.24543394649493483,-0.025823188067219074
0.24348411625803595,-0.026543123113678367
0.24302925582037144,-0.026711159779660203
0.23958727297758292,-0.027990736248183608
0.23763952312565595,-0.028716389222169673
0.23646409103387933,-0.029162223352255438
0.30333190052500647,-0.0046620622686845406
0.34765395546293104,0.039989886771307784
0.34627201249670175,0.03728114681272141
-0.44531707786294006,0.020848994064362317
-0.05601912558311191,-0.0947696605452766
-0.0540399669452377,-0.09548720117072756
-0.05210747016245306,-0.09617657358517621
-0.048190084677572194,-0.09760268458984908
-0.04625202500473616,-0.0983200049617895
-0.042483643205350044,-0.09976423816505339
-0.013601698298939903,-0.11012712338584273
-0.013023270639739485,-0.11033425538234627
-0.011047968911235075,-0.11104446047086952
-0.009115972067293712,-0.1117424166135596
0.021027350893251598,-0.10744171336359255
0.020922792800640792,-0.10747820937638355
0.018844215834182446,-0.10821035575320681
0.08653044889188789,-0.08365097813680097
0.08537984846606711,-0.08405879868056733
0.18964252945368887,-0.046197568629946964
0.19076564365102952,-0.04578057474428999
0.17512117049710757,-0.051414088134351464
0.17316930379061446,-0.05212842595448358
0.17307456279802075,-0.05216315901274186
0.18490500628519085,-0.04790974335869273
0.18694494240575618,-0.04717904650524818
0.1809813103353705,-0.0492835520679431
0.1817657427236582,-0.04900099940278563
0.18290304940797064,-0.048612981829388204
0.24155387820053525,-0.027263197920688736
0.23578285598521503,-0.029420414501271173
0.3484280062292118,0.041187140283183585
0.34374691830583415,0.03337519726417788
0.3033772666898323,-0.004645748651910937
0.3512090677109787,0.04509305937235304
-0.44922334579065404,0.02069856982573951
-0.44727019848670857,0.020885886170860957
-0.021551004678642516,-0.10730210684916824
-0.020973086060806043,-0.1075023466341351
-0.040434152741287276,-0.10056662880426935
-0.039862138300337954,-0.10079100428281487
-0.01508638587503248,-0.10960322557227557
0.022589154090585293,-0.10691508974864916
0.06573712996059863,-0.09119848704800831
0.06769069847269799,-0.09048882663193411
0.06389570939658894,-0.09186957874160263
0.05978679934865903,-0.09335833643713265
0.06183074405311914,-0.09261987232063772
0.055970165153726895,-0.09474920162975817
0.05802065850299323,-0.09399735583575682
0.05399729522969712,-0.09548402491246225
0.05343037263321834,-0.09569396023210007
