"Plane Section: Position[X] (m)","Plane Section: Position[Y] (m)"
3.5,0.0014821447181418567
3.2700000000000005,0.0015021165166653264
3.04,0.0015616735448387548
2.81,0.001645293491268447
2.58,0.0017835002456491867
2.3499999999999996,0.002006226804040518
2.1200000000000006,0.002295283362857924
1.8900000000000003,0.0026730827298414965
1.6600000000000006,0.0032585436997739584
1.4995031753987504,0.0039999999999999775
1.4300000000000002,0.004331913199832987
1.2000000000000004,0.005498690907643687
1.1760000000000002,0.006035107301994811
1.1520000000000004,0.006409809526554909
1.1280000000000001,0.006926110184632488
1.104,0.007351517194562163
1.0800000000000005,0.007763121485193704
1.0560000000000005,0.008055697857308218
1.032,0.008367807442650223
1.0080000000000005,0.008760541393494647
0.9840000000000004,0.00916419880721869
0.9600000000000003,0.009660868834056303
0.9360000000000004,0.010206026708071775
0.9120000000000003,0.010767239881533325
0.8880000000000003,0.011419312605259215
0.8700898804091886,0.011999999999999846
0.8640000000000008,0.012202933539946163
0.8400000000000003,0.013071445681664556
0.8160000000000002,0.014006383821450915
0.7920000000000004,0.015052786132947523
0.7680000000000003,0.01619181310939208
0.7440000000000004,0.017489374841527364
0.7200000000000002,0.01889225621147815
0.7033774607463894,0.019999999999999386
0.6960000000000004,0.02050985981912015
0.6720000000000004,0.0225289883587147
0.6480000000000006,0.02495897055125084
0.6240000000000008,0.027777856006903384
0.6225951158318759,0.027999999999998543
0.6000000000000008,0.031265984837827464
0.5760000000000007,0.03539810797983628
0.5732935719787629,0.035999999999998214
0.5520000000000009,0.04020860888269966
0.5347733058758095,0.04399999999999738
0.5280000000000007,0.04562998593340935
0.5074608487599879,0.05199999999999638
0.5040000000000004,0.053353169779452245
0.4897032497612426,0.05999999999999584
0.48000000000000054,0.06776665765410296
0.4796891047446342,0.06799999999999518
0.4714081209456727,0.07599999999999421
0.4645359032341422,0.08399999999999364
0.462935523778912,0.09199999999999284
0.4619607745962666,0.09999999999999232
0.45987087956656925,0.12166666666665904
0.4559999999999985,0.13400396472325218
-0.5733635940392374,0.03599999999999673
-0.5759999999999998,0.03541596195381746
-0.5348553337639453,0.04399999999999584
-0.5519999999999998,0.040203651358319034
-0.5080351917257542,0.05199999999999512
-0.5279999999999998,0.04566273396625299
-0.4901578164290793,0.059999999999994336
-0.504,0.053603619802439786
-0.47879223013152883,0.0679999999999936
-0.48,0.06719572173909046
-0.6223217968141246,0.02799999999999745
-0.6240000000000001,0.027731453003696508
-0.6,0.031271060091183106
-0.46818978598869,0.07599999999999288
-0.648,0.02492266325096759
-0.46156015192639877,0.08399999999999215
-0.6719999999999999,0.02256780245915943
-0.4622598036265111,0.09199999999999134
-0.7035305551504653,0.019999999999998297
-0.72,0.018839369207083012
-0.696,0.020550450467708054
-0.4619842924998885,0.09999999999999085
-0.7440000000000001,0.017410997627645516
-0.4594847771758508,0.12166666666665747
-0.768,0.016138002210015177
-0.45600000000000357,0.13136832658502196
-0.792,0.015016324125094264
-0.8160000000000001,0.013982015498065159
-0.8400000000000003,0.013049527861095278
-0.868985860219052,0.011999999999999206
-0.8880000000000003,0.0113768842237848
-0.8640000000000003,0.012168640451449667
-0.9120000000000001,0.01070285959820011
-0.9360000000000002,0.010124043882023766
-0.9600000000000002,0.009601008287861295
-0.9840000000000002,0.009093840476024422
-1.008,0.008661404104892436
-1.032,0.00827601932736971
-1.056,0.007950696579669209
-1.08,0.00766141288493619
-1.104,0.007326685767389991
-1.1280000000000001,0.007005126378961597
-1.1520000000000001,0.0065743754790468945
-1.1760000000000002,0.006254362683463967
-1.2000000000000002,0.005636251450225491
-1.5018185498405974,0.004000000000000172
-1.6600000000000001,0.0032617165167228377
-1.43,0.0043464346953653865
-1.8900000000000001,0.002687625673661662
-2.12,0.0022916722860908565
-2.3499999999999996,0.0019952666680769907
-2.58,0.0017935333025956325
-2.81,0.001656209272700596
-3.04,0.0015559549935531187
-3.2700000000000005,0.0015000130408676518
-3.5,0.001490139543561966
-0.3016745628547474,-0.05657893946281704
-0.30000770941759763,-0.057185693027346454
-0.35940096198949856,-0.006577289602135544
-0.3568529676715257,-0.010102869725154551
-0.2944274722409816,-0.0592183705301593
-0.29620947911548734,-0.058569456620156654
-0.29232087750549546,-0.05998548732128839
-0.29031476354595154,-0.06071602265795061
-0.2884152982515011,-0.06140773933295318
-0.28646229833675524,-0.06211894909689045
-0.28452117807904825,-0.0628258325607755
-0.28255628891603013,-0.06354136762213977
-0.28060328173308374,-0.0642525706022169
-0.30317913368371596,-0.056030039131153786
-0.2981087202460585,-0.05787773120478161
-0.3554955500155756,-0.011549710328083666
-0.3532145868558808,-0.01400973301511627
-0.3496406542464224,-0.01791658544259101
-0.3515899905273405,-0.015646914020106616
-0.3596867219266902,-0.0061961420517642266
-0.278731791254384,-0.06493408219529742
-0.30337656525944634,-0.0559586612487436
-0.34963724853140987,-0.01791947955791215
-0.34797327634583236,-0.01986999150018011
-0.34587238846993934,-0.02182347062414359
-0.34768449484850156,-0.020122705150430673
-0.36227557966475155,-0.002289455654698294
-0.2610732450349156,-0.07136469687493285
-0.2591202398982996,-0.07207590547432997
-0.2572516769696953,-0.07275637084675546
-0.27669726122433774,-0.065674959693902
-0.274744250730545,-0.06638615358225963
-0.2729515371275477,-0.0670390433147541
-0.2708382443730973,-0.0678085815339229
-0.26883430447889467,-0.06853835631390216
-0.26497924146683977,-0.06994224166740484
-0.2630408135216741,-0.07064817646664752
-0.30348594258699263,-0.055920884142231043
-0.34573168208092164,-0.021975375540014955
-0.3441510168105506,-0.023776885782165243
-0.3423177165296568,-0.025730319805308644
-0.34377892671066934,-0.02416858994665766
-0.36330629093232664,-0.0011122372631891565
-0.3656196902923604,0.001617358037207943
-0.2552142370430358,-0.07349834304312841
-0.25326123524906513,-0.07420956082155154
-0.2514720144801432,-0.07486119885594805
-0.2669322421671484,-0.06923102088575099
-0.3035628796605465,-0.05589701324725649
-0.34182615006128314,-0.026235553133410708
-0.34044379091632937,-0.0276837606756893
-0.3385230052105729,-0.029637209444149756
-0.33987336729681505,-0.028266234924585406
-0.36721178767603624,0.0033572359046509953
-0.3691931700386889,0.005524210388359064
-0.23577165351376012,-0.08057886566042169
-0.2376372758783102,-0.07989945402869313
-0.24935523018533265,-0.07563199232572702
-0.24735385765111015,-0.07636084452421049
-0.23959026338306394,-0.07918819701155927
-0.30363844895257414,-0.055875487325604996
-0.3379205755379534,-0.030243552085847773
-0.33658981790120085,-0.03159066030285207
-0.3346124843646815,-0.03354411860222099
-0.3359677826018707,-0.03221388471804922
-0.3711172699798788,0.007912382252750687
-0.3723380344440718,0.009430990498109831
-0.23177829611342426,-0.08203317770922242
-0.23373127942146976,-0.08132190916776749
-0.22999262494517092,-0.08268360431460853
-0.22787232434671173,-0.08345570064832991
-0.2258735109879717,-0.08418359612154497
-0.24544923997335366,-0.07705446461346932
-0.24349624362075445,-0.07776569733409389
-0.24156050749454538,-0.07847066044393573
-0.30368567923233086,-0.05586741995297533
-0.3324537885679578,-0.03549760746947573
-0.33401498083650083,-0.03413183231153172
-0.3745584346556282,0.013337614793135423
-0.21542866902555588,-0.08798761647094323
-0.21615441495339205,-0.08772328568599592
-0.2239663395999952,-0.0848781879438654
-0.22201336736892652,-0.08558948690310109
-0.22008032708089642,-0.08629346815538552
-0.2181073871688306,-0.0870119866838255
-0.3038127549650357,-0.055833174657262015
-0.33206214573302106,-0.03585198160839638
-0.3301092675079453,-0.037316286230286974
-0.32995631747081466,-0.03745115343594606
-0.32755659532067916,-0.03940468292722378
-0.3281564040495999,-0.038868203289676884
-0.3750224954273509,0.01399148281809208
-0.21429184620241126,-0.08840190927655374
-0.3039928711110216,-0.05578366598139254
-0.3262035690449026,-0.04058893863741509
-0.3253983258915817,-0.04135817172261456
-0.3233235017722735,-0.04331164645363124
-0.32425075628027294,-0.04244162648062265
-0.3772621105175133,0.01724432054233105
-0.21029565779428014,-0.08985762065026408
-0.20851379474330428,-0.09050742456349883
-0.20639017034860702,-0.09128147355291844
-0.20439401576947058,-0.09200867389242108
-0.21224860861644504,-0.08914626290137444
-0.3040548919544169,-0.05578845934158019
-0.32120729968633566,-0.04526512815873758
-0.32229793889254343,-0.04426688507893109
-0.37892775110150256,0.019891245517313326
-0.37993305170750485,0.021151020774227276
-0.20053189891623568,-0.09341714234086049
-0.2024845296256138,-0.09270490555037134
-0.19860179137670672,-0.09412077052498036
-0.30456444370878755,-0.05562351096132563
-0.32034511482607886,-0.046052518036882394
-0.3186507754383725,-0.04721868407838397
-0.31575914955501333,-0.04917229647806121
-0.31643929492510353,-0.0486046672130623
-0.38283318573239383,0.024729240194865727
-0.38315593099091316,0.02505781403307606
-0.18491045947565918,-0.09911395536997133
-0.18291700084074763,-0.09984055044237336
-0.18881586327306013,-0.09768987276603239
-0.19076876990601582,-0.09697839367192658
-0.18703760693870103,-0.09833837386834249
-0.19856012734888012,-0.09413596434383754
-0.19467429169329162,-0.09555463507257103
-0.19281485816129473,-0.09623264842443985
-0.3053934153213726,-0.055328963985438795
-0.30566831576099845,-0.05517948499715023
-0.30557509498910385,-0.05525521116249703
-0.31839221762229913,-0.047404220096847145
-0.314486437976647,-0.05019520811314882
-0.31323632805246304,-0.051125846717239694
-0.3860637173889243,0.02896455418427911
-0.18192055667305873,-0.10020367030235486
-0.19662677609303478,-0.09484199651039033
-0.30577708221037725,-0.055113394133480334
-0.30667467970991985,-0.054596643259795796
-0.3062468315955281,-0.05503327482429797
-0.3125335595015445,-0.051658029278485576
-0.3898588841653572,0.036777693955362484
-0.39653477652628655,0.052403819372127
-0.3984528829483899,0.05619249836928508
-0.40353092955217607,0.06802999876755322
-0.40033721619486007,0.06021696036902369
-0.17712472583105132,-0.10195208763875657
-0.17905213378386767,-0.1012494751595311
-0.17319462840822886,-0.10338724756772541
-0.17514712182545997,-0.10267463376790523
-0.17133798192020022,-0.10406364666758686
-0.18100488374487977,-0.10053756583846724
-0.31058061469664167,-0.05272730917830803
-0.31002822079928005,-0.053079512458579794
-0.3086276945593729,-0.05394294458445787
-0.39064338275729427,0.038393677384554764
-0.39326333233210575,0.04459076787238979
-0.40626279358818995,0.07155608663939472
-0.4363984426086133,0.14616053956454342
-0.43750004269297943,0.14721104128876944
-0.16928868359908347,-0.10480984453330341
-0.16723402213126537,-0.10555788015519585
-0.16143868810535844,-0.10766885070653426
-0.16342976624681438,-0.10694373960122527
-0.409617796860249,0.0758435247955686
-0.42783638393941914,0.1305340962419961
-0.45312454925160484,0.15013999429654962
-0.15171177397932167,-0.11121109706331012
-0.1498581248416712,-0.11188640980906142
-0.15952377518050043,-0.10836620954289905
-0.1575708067432776,-0.10907751892018747
-0.15564590658060706,-0.10977856603602162
-0.1654704487051054,-0.1062002764062033
-0.4140734378641021,0.08256693939244682
-0.41508833096742215,0.08365694694309243
-0.41996960337082545,0.09928276988387569
-0.4218818676333971,0.10671667863867701
-0.4241447474824379,0.11490847380957145
-0.4560625194507987,0.14616385386579112
-0.145754701120138,-0.11338364926374812
-0.1478062313519083,-0.11263479843488589
-0.15366481275200028,-0.11049998082981416
-0.4593634914125501,0.13053941000945418
-0.14400206038847516,-0.11402444427515125
-0.1419512968004847,-0.11477963042188272
-0.14399167643368876,-0.11402826996911092
-0.1399638422906916,-0.11550665852361064
-0.4605246303274032,0.11491460549284593
-0.1380470610721217,-0.11620692058679476
-0.13609496343690816,-0.11692062121874265
-0.1354545992093888,-0.11715559515786073
-0.12902319329754086,-0.11952540990788166
-0.13024248653829626,-0.11907220201166327
-0.46075627779581413,0.09928964431418852
-0.4624724336219054,0.08366493334345326
-0.4687616778367349,0.0781812166956289
-0.13417572474069117,-0.1176287394707399
-0.13219379787806562,-0.11835634218321016
-0.12839897868366984,-0.11976599451554887
-0.4710354430385132,0.07585387649338
-0.12634759679751148,-0.12052515660568917
-0.10691261573776084,-0.12757078765192176
-0.10876162406498562,-0.12690152149130712
-0.47657550607255117,0.07030132057516365
-0.10920275260832954,-0.12674324378777474
-0.12429893564754532,-0.12127409497193928
-0.12049186945053866,-0.12266781154662165
-0.11849320040888522,-0.12339398916201655
-0.09898868865696432,-0.1304358440896847
-0.09700576068690957,-0.1311591955941358
-0.10485381927143377,-0.12831901087061082
-0.10280493045458523,-0.12905952505403845
-0.10103701737668376,-0.12969218345047917
-0.4783243141947923,0.06804260489240765
-0.1146297431868308,-0.12479289482449636
-0.11658445294239207,-0.12408636717205879
-0.11270765526858169,-0.12548468927480322
-0.11071890311038668,-0.12620204920422073
-0.12253610999930396,-0.12191998852016198
-0.09508492068158893,-0.13186441872167687
-0.09313301681885798,-0.1325786514600677
-0.4833656884118742,0.06023095448484277
-0.09121599102912725,-0.13327582201704066
-0.08727276302661517,-0.1347088766141608
-0.08922743591726878,-0.13400224772932448
-0.08542666070100696,-0.13537664570396338
-0.08336643468774373,-0.13613042039287135
-0.08132182514926593,-0.13687487854631855
-0.0775084285328644,-0.13826681764266727
-0.07552726354228291,-0.13898693673843673
-0.4843899075861118,0.059020110930484704
-0.07955781440856383,-0.1375189970320601
-0.07360194073874524,-0.13968792355133758
-0.07165170245108649,-0.14040673002074974
-0.07068958243769624,-0.14076824297110865
-0.06396571682389567,-0.14325112805556506
-0.06580814797462022,-0.14258281211635776
0.2961488692935227,-0.058691278610026265
0.29436620668942204,-0.0593405829871395
-0.4922029515544023,0.05579335162499863
-0.06974662633607887,-0.14112816447906104
-0.06776100040073313,-0.14187118416825606
-0.06288462330491691,-0.14365212578547054
-0.007198915449836972,-0.16382119765757605
-0.005320897337583893,-0.16450282155855642
-0.007771149238199002,-0.16361389229243428
0.01676319798298218,-0.16031124013009151
0.018801487520551927,-0.1595729067267065
0.2922595044497377,-0.06010777483443392
0.29206135789006177,-0.06017998903029796
0.27867423462700014,-0.06506663579997181
0.2805452996198713,-0.06438395426145996
0.2766534960411043,-0.06580354691460064
0.29805198168354574,-0.05799843384969697
-0.06190597848287288,-0.14401577624376163
0.012940560897294763,-0.16170071056742577
0.014997294163348895,-0.16095237785495042
0.01096822911037118,-0.16241802285480028
0.007096132922857906,-0.16382191830024723
0.00893664411974459,-0.1631543689533409
0.005217535469476413,-0.16450402179951412
-0.0033955570098817417,-0.16520212276612312
-0.0016416964055887195,-0.16584158734686444
-1.9343860224874348E-4,-0.16637339988445138
-0.0105705976260369,-0.16260266329730516
-0.00914254892553975,-0.1631186227067971
0.022711335950926812,-0.15816103979576393
0.023646599298439534,-0.15782374133850946
0.019380926856839654,-0.15936317459554702
0.020874148565080165,-0.15882450124023725
0.27664005386560464,-0.06580847375174846
0.2746912558088529,-0.06653124761762082
0.2729007893535465,-0.06719031494301111
0.2999527185711639,-0.057304516621205275
0.2902542290721021,-0.06084048521156671
0.2864026252859021,-0.06224568548059159
0.2883553767452026,-0.061533807873344414
0.28446220314633597,-0.06295448660506696
0.28249792430902926,-0.06367169949744032
-0.05989071618224288,-0.14480482058913208
-0.022818824779788416,-0.15816566526078507
-0.02098260600421615,-0.15883179137743159
-0.018732238117301573,-0.15964284305408785
-0.016870389159315678,-0.16031506014552535
-0.025840328786460136,-0.15707285064091436
-0.02477280791308055,-0.1574571422766035
0.009037651215833973,-0.16311784760419262
0.0032917043186729326,-0.16520370367674322
0.0015370692189098061,-0.16584491295293124
6.227650676595046E-4,-0.1661787866537882
-5.289869249121397E-5,-0.1664256924363536
-0.015104735106822796,-0.160956920867933
-0.013048335223933448,-0.16170639163180012
-0.011074749336871552,-0.16242129778498382
0.026667846188242226,-0.15673874413633535
0.027325889895785833,-0.15650378689306152
0.024667179845409264,-0.15745763436585455
0.08533825487512448,-0.13542447635473048
0.08655967967144333,-0.1349834994150752
0.1985536300021541,-0.09427917107246475
0.20036126202363025,-0.09362644630678388
0.27144238938077986,-0.06772698338879832
0.30163188888118186,-0.05669310583121732
-0.05988191690306876,-0.14480884452461112
-0.01890953256313447,-0.15957906954810194
-0.02937989043327891,-0.15581162667748427
-0.028686801461376914,-0.15605664744774608
-0.026773480130628177,-0.15673825957670998
-0.031844227671140334,-0.15495583102410004
-0.030648202588610948,-0.15536849455051424
-0.0336563916795739,-0.1543583415819524
-0.03259442112009236,-0.15470869878544774
0.028580828222230202,-0.15605621300290715
0.08327731211029206,-0.1361762843781321
0.08718467236409295,-0.13475757747543124
0.08123289026145687,-0.13692125873564692
0.18991868099752857,-0.09748766444777601
0.1887843577053703,-0.09789406555303973
0.18700445148460765,-0.09853803242710771
0.19657776713199765,-0.09499806931594028
0.19511191697448357,-0.09553604975201914
0.1858981865464175,-0.09895023739420902
0.1985703553594425,-0.09432514772198726
0.27276729572087927,-0.06728662484151822
0.2766786025418722,-0.06591444093366709
0.2760576082487102,-0.06612062010948355
0.27471867127095995,-0.0666066104975328
0.27291738890854933,-0.06723594577226086
0.30330828291720313,-0.05607079034724388
0.27961967199213883,-0.06485629427861885
0.2787149074430309,-0.0651784420696743
-0.05855163242557996,-0.1453861081788335
-0.04945720875300348,-0.14869794368901126
-0.04831798297233602,-0.14909230282502628
-0.04459198851477521,-0.15046966773991635
-0.0463207659018833,-0.14981206957511528
-0.03459693391237016,-0.1540633909435991
-0.04437939769035448,-0.1505552336031092
-0.04293296109295275,-0.15121428904761802
0.03053873362176345,-0.15535847448304835
0.07332980496469207,-0.1397962549271453
0.07155768172460525,-0.14043914097016347
0.07113485003653361,-0.14059473425241223
0.06766001970333985,-0.14188450752685441
0.06570849150283087,-0.14259977644917315
0.0638700553566979,-0.1432790722245032
0.10272301895524512,-0.1291252155425852
0.10477331226828952,-0.12838856704231016
0.09112903796668687,-0.13332765205285743
0.09304617943343749,-0.13263080001058397
0.08913941615844267,-0.13405114795956372
0.07946800770825932,-0.13756298259861469
0.07937232359812765,-0.1375981112935526
0.07543784326828565,-0.13903198542970016
0.07741826355816464,-0.1383098201072447
0.10621008928701094,-0.12787670079520108
0.11842374617592667,-0.12349396492310333
0.11861207694175052,-0.12342753608854129
0.16338433695023963,-0.10710967023665613
0.16139354013245055,-0.10783555506510471
0.16542447825186135,-0.10636471878291487
0.1907437910226832,-0.09720052715511901
0.19658949657817426,-0.09503031261135561
0.19391944264045394,-0.09612590375025848
0.19279601990893178,-0.09647166104932844
0.16955935622567586,-0.10489396682702226
0.16925272623265236,-0.10500181141686393
0.1671924705868938,-0.10573446928299834
0.18581100162752784,-0.09907558732959645
0.17710693240085212,-0.10219398045424861
0.17903853968546704,-0.10150291058419796
0.25913636196548895,-0.07241099935254203
0.2610897585902591,-0.0717008665768426
0.25726699701530953,-0.07308926037009492
0.23766544477577545,-0.08026766773204994
0.23961630377138482,-0.07955055921979151
0.23580122372343798,-0.0809509318099566
0.35544191997641306,-0.011787656080781679
0.3532350878674101,-0.014128802273004806
0.34966578916372915,-0.018034450737511153
0.351534988469767,-0.015830773219677973
