"Plane Section: Position[X] (m)","Plane Section: Position[Y] (m)"
3.5,4.5057920552267526E-4
3.2700000000000005,4.567346809107077E-4
3.04,4.747951290782807E-4
2.8100000000000005,5.010967442325327E-4
2.58,5.423460299544901E-4
2.3499999999999996,6.124131831143007E-4
2.12,7.052922386307822E-4
1.8900000000000001,8.318527432926426E-4
1.6600000000000004,0.0010285586482194332
1.4300000000000002,0.0013255649107673058
1.2000000000000004,0.0016448844199945392
1.1760000000000002,0.001821389940666474
1.1520000000000001,0.0018859246419461646
1.1280000000000001,0.0019561194339056775
1.104,0.00203862958336029
1.08,0.0021222084635757884
1.056,0.0022070401796523364
1.032,0.0023031980824946173
1.008,0.0024064530861533017
0.984,0.002511922068779724
0.96,0.0026270413198528327
0.9359999999999997,0.002755896676915147
0.912,0.0028947148203622227
0.8879999999999998,0.0030466841726304334
0.8640000000000001,0.003220244881160768
0.8399999999999999,0.0034189753469502414
0.8159999999999998,0.0036351432430596752
0.7920000000000003,0.0038937396051241927
0.7832165689730377,0.00400000000000022
0.7680000000000006,0.00418379508876072
0.7440000000000004,0.004497716421905599
0.7200000000000003,0.004848564301624482
0.6960000000000004,0.005218209581517313
0.6720000000000003,0.005681538563689137
0.6480000000000001,0.006191949726553941
0.6240000000000001,0.006765309322410143
0.6000000000000001,0.007514957344944085
0.5760000000000001,0.008551432828618935
0.552,0.009910673223465463
0.528,0.01147222574161098
0.5158123836045638,0.011999999999999853
0.504,0.012500815687982964
0.4800000000000001,0.014022649576615361
0.45599999999999996,0.014108668351757746
-0.4800000000000002,0.013980959463126032
-0.45600000000000007,0.014299316639687639
-0.5170931733383866,0.01199999999999837
-0.5280000000000004,0.011523308799799686
-0.5040000000000004,0.012558973503364476
-0.5520000000000002,0.009931391780799357
-0.5760000000000003,0.008582137375887363
-0.6000000000000002,0.007549609173825682
-0.6240000000000001,0.00676800645970193
-0.6480000000000001,0.006165998003750608
-0.672,0.005674298849086002
-0.6960000000000003,0.005218254585445856
-0.7200000000000002,0.004830174108771335
-0.7440000000000002,0.004486759361638339
-0.7821371794402721,0.003999999999999251
-0.792,0.0038831727202815964
-0.768,0.004167473994490309
-0.8160000000000001,0.0036321462700765928
-0.8400000000000001,0.0034145164728530204
-0.8640000000000001,0.003224659552817263
-0.8879999999999999,0.003053279468043105
-0.9120000000000001,0.002899103166938709
-0.936,0.002761309159264649
-0.96,0.0026334036427714735
-0.984,0.0025188909601925576
-1.008,0.0024088963296873614
-1.032,0.0023085914421895957
-1.056,0.0022135075036026387
-1.08,0.002120664721136161
-1.104,0.0020396660888128363
-1.1280000000000001,0.001959775952139908
-1.1520000000000001,0.0018887117914758267
-1.1760000000000002,0.001821763790248457
-1.2000000000000002,0.0016462043050647014
-1.43,0.0013263670938079338
-1.6599999999999997,0.0010287014902704739
-1.89,8.340043845811811E-4
-2.12,7.023644573940625E-4
-2.3499999999999996,6.09842642202162E-4
-2.58,5.448942657385976E-4
-2.81,5.032631665955554E-4
-3.04,4.7371508118043346E-4
-3.27,4.5641585102195804E-4
-3.5,4.526752088721618E-4
-0.3016452631505036,0.00391554050171738
-0.29997834496415354,0.003308921321332898
-0.35156304714336084,0.04754021360239692
-0.3498195622945732,0.04648109548447143
-0.3444529433388356,0.04257429295704546
-0.3476570839018178,0.044754664860271604
-0.35937510205106427,0.051863894771280505
-0.35654581781472333,0.05038803798984916
-0.294397950372134,0.001276655848797709
-0.29617999773236936,0.0019254584768287936
-0.29229130486644694,5.096784673653716E-4
-0.290285142248546,-2.207232355116127E-4
-0.28838562841253934,-9.123066004834046E-4
-0.2864325793409812,-0.0016233813640342612
-0.28449140990324095,-0.0023301297636721748
-0.28252646725348946,-0.0030455179314451287
-0.28057341266840125,-0.0037565907288557914
-0.3027998619664075,0.004336547279813122
-0.2980792811073164,0.002617067064064141
-0.3554690719578824,0.049727690570959
-0.34375113180621075,0.04186085314005773
-0.3414487149029521,0.038667733643584314
-0.36328118870486076,0.05345071326996048
-0.2787018824827233,-0.004437993273124594
-0.30334881923387713,0.004534641183696099
-0.3654106893697462,0.05429520067106261
-0.33984919472426567,0.036714443958666874
-0.3384362990891623,0.03476117348721021
-0.3398454121127088,0.036709668871004124
-0.3671872858187792,0.054935930352785045
-0.3710934253120455,0.05600950753322273
-0.26104289441978507,-0.01086739451536323
-0.25908984229649584,-0.011578474074358006
-0.2572212402915991,-0.012258832133772763
-0.27666731059466004,-0.0051787558147512016
-0.2747142564952413,-0.005889829946102963
-0.2729215034827056,-0.00654261145802409
-0.2708081559855458,-0.007311999327799884
-0.2688041597382991,-0.008041619345262754
-0.2649490019092121,-0.009445244304181092
-0.2630105171445074,-0.01015102306224299
-0.3033787098738456,0.004544916404091534
-0.37499957256311905,0.05700773150305124
-0.33789257233251585,0.03393916586286126
-0.337282495047743,0.032807929689875004
-0.335814659472501,0.03085465356221272
-0.3359397469401644,0.031028910574066662
-0.3789057261159663,0.057944744880383564
-0.37999018617414393,0.058202951687109435
-0.2551837512048496,-0.013000669323643913
-0.2532306976934143,-0.013711745069959817
-0.2514414448531032,-0.014363295042352772
-0.2669020496089885,-0.008734152595583956
-0.30352696808785823,0.004594970830406881
-0.33439519472567475,0.02890138241445396
-0.38281190978885715,0.05858919569142391
-0.38671815454295083,0.05864035137255321
-0.3889250181106856,0.058203871550211214
-0.38843761040426816,0.05836239641156861
-0.23574066562051021,-0.02007981318008605
-0.23760633058832514,-0.01940051854546276
-0.24932460858997182,-0.015133945779973366
-0.24732318369563971,-0.015862654185131168
-0.23955937798487675,-0.01868942600402431
-0.30380054595709527,0.004690331480720249
-0.33291515423076345,0.026948105030264482
-0.33398689447311286,0.028381637765864297
-0.3902018893125284,0.056250877996916644
-0.23174719972971244,-0.021533827291569788
-0.23370024587973953,-0.020822731326433943
-0.22996147428216634,-0.02218410485338527
-0.22784112357712896,-0.02295606357243856
-0.2258422744666476,-0.02368386086434955
-0.24541851328197226,-0.01655612944864663
-0.24346546776869682,-0.017267227162680227
-0.24152968209541192,-0.017972054207397056
-0.303994015694695,0.004754522599448147
-0.33203402430071716,0.025906340866741435
-0.33130870466167683,0.024994814631946895
-0.39034381483712455,0.05429776759815261
-0.21426016335662124,-0.027900948353135183
-0.21612287285581872,-0.027222711266027086
-0.2239350379961389,-0.024378273957271462
-0.22198199224050635,-0.02508937100564606
-0.2200489129160338,-0.025793245061245487
-0.21807592454413016,-0.026511630512325607
-0.3041017919523669,0.004783593567238384
-0.330081128736078,0.023677684359378906
-0.3295355927646171,0.023041507075332236
-0.3275773819791692,0.021088180462327594
-0.32812820905842044,0.02168324292966327
-0.38924172012453934,0.05234452912441746
-0.38748757925099997,0.05039122352091131
-0.38867198836181543,0.05175553889215655
-0.38529761426942954,0.048437873048240106
-0.386719068551558,0.04976238542227826
-0.2084816207936459,-0.03000511506156916
-0.21026378559490894,-0.02935613975748294
-0.20471046336719526,-0.03137832448102433
-0.2063577257101189,-0.03077842071942266
-0.21221681885899574,-0.028645008399856276
-0.30427341561535204,0.004832640802806775
-0.3261752686822287,0.0198898508864875
-0.3254255082267354,0.019134833911239785
-0.32308359245818574,0.017181467794857606
-0.32422231546069746,0.018221228460732666
-0.3847661231496526,0.04801780925432797
-0.38301689303235353,0.04648451323198479
-0.38281317402888776,0.0463093551613688
-0.38087599692418245,0.044531167811073635
-0.20436153110216906,-0.031505511179412214
-0.3045412990292138,0.004916114729198643
-0.32053343130171486,0.015228080239095713
-0.32226935738459317,0.01659975954185709
-0.3808602336842035,0.044515657081258014
-0.3791156313862927,0.04257786156672843
-0.20049905517611685,-0.03291299379194269
-0.20245192695955103,-0.032201418911964014
-0.19856900728445923,-0.03361678595423787
-0.19278131387580272,-0.0357265767586179
-0.19464080573915732,-0.035048723448532354
-0.19157738131495336,-0.03616538740186753
-0.3052220286269315,0.005160148182461749
-0.3054472331190851,0.00523997273030728
-0.30533320520509694,0.0052015747866964316
-0.3203163897512652,0.015071122077913994
-0.3183634115041283,0.013645578854077496
-0.3179159375579993,0.013274685751271184
-0.3151450363357481,0.011321275469771071
-0.31641043113553197,0.01224064180343988
-0.3789073352255242,0.042315111045166096
-0.3777898587814218,0.04062460006480325
-0.1848769988955749,-0.03860811417235986
-0.18288354316949929,-0.03933471736549403
-0.19073531020561582,-0.03647255445619718
-0.1887826687666944,-0.037184761999837425
-0.18700449734580563,-0.0378334965045971
-0.19659361404656403,-0.03433697422546681
-0.30563030417509035,0.005315412278296661
-0.3144574527516714,0.010816426559160023
-0.31250446292414413,0.009503366175789809
-0.37672588197659485,0.03867136551540443
-0.3769545343304369,0.03916690845251602
-0.17709092940551444,-0.041445324578170434
-0.1790183968666507,-0.04074287540075788
-0.17315980955137888,-0.042877677041634615
-0.175112710319213,-0.04216618177014367
-0.17130310202820137,-0.043553908565491656
-0.18097134853461883,-0.04003151993144221
-0.3123136524327059,0.009367858961431618
-0.3057695479466421,0.005367227004691693
-0.30664544407213856,0.006043721034389476
-0.3062432805125661,0.005460983980891426
-0.3760480523193308,0.036718170720812945
-0.1692538079085078,-0.04430011797069208
-0.1671993987898282,-0.04504884667320673
-0.31055146540390155,0.008265026788881922
-0.30916274267296456,0.00741440955711312
-0.3085984658345478,0.007046590920273398
-0.37553916163079465,0.03476499331890613
-0.16648362459108845,-0.04530991480097195
-0.16339589806257895,-0.046436780347156634
-0.16140514591544664,-0.04716278684779956
-0.3752901128003474,0.0328118426683635
-0.15167944548929524,-0.050708366829550225
-0.149825863248237,-0.051383863377202826
-0.1594905228312266,-0.04786094177650125
-0.1575377325692997,-0.04857274056324726
-0.15561290170857184,-0.04927397804971538
-0.1654362239957173,-0.04569233784866385
-0.3753731729918277,0.030858726209266784
-0.14572176541721138,-0.052879251880155756
-0.14777377288805274,-0.05213171150352097
-0.14191471652240278,-0.05426522485181859
-0.14395786804277583,-0.05352147614233495
-0.1536321441674725,-0.049996316499115206
-0.1399261256842171,-0.05498913252007883
-0.37617191610496,0.02890568343150267
-0.13800860729917655,-0.05568737030095025
-0.13605577293619783,-0.05639904795985598
-0.13479183437154815,-0.05686080983204671
-0.13019942547639687,-0.058540001582101125
-0.12834918130345568,-0.05921529618957472
-0.3828151189509144,0.027417901229684218
-0.3808619688588397,0.02766152552140113
-0.3789088225141425,0.027868750702890664
-0.3769556534908861,0.02829625769863188
-0.1262943029814806,-0.05996485717671995
-0.13413462661043418,-0.057101928392774726
-0.13215223382137642,-0.057828252462225616
-0.3852591267557854,0.02695349397202198
-0.38476827466374525,0.02711968129308224
-0.12424534758656325,-0.06071298790591703
-0.12043641208225013,-0.062101571592105616
-0.11843841826899584,-0.06282960350244723
-0.3867215303426318,0.025850469124794363
-0.115859855976251,-0.06377219123042144
-0.11653124900927532,-0.06352631573511595
-0.12248166460766252,-0.06135652743371155
-0.10687878942099974,-0.06706395200220189
-0.10872696007063769,-0.0663923857994542
-0.3870922289505564,0.025000557684088678
-0.11458031806681333,-0.06424322132398752
-0.11266268769839993,-0.06494725741302157
-0.11067834965061434,-0.06567673990320977
-0.10482148752877057,-0.06781627995599102
-0.10437962296100772,-0.06797973898028838
-0.3873540163565211,0.023047459625403454
-0.09897089890666792,-0.06997305078725803
-0.09698554255551223,-0.07068973274411161
-0.1027792326604768,-0.0685750139284847
-0.10101817522223677,-0.06922650001111044
-0.38867509719061966,0.02155880329393383
-0.09118473300159619,-0.0727760385354341
-0.09295688511688538,-0.07213860738817329
-0.08724091561608496,-0.0742074738358013
-0.08919415399633408,-0.07349690584971082
-0.0853951690339837,-0.0748762192097359
-0.08333022551257947,-0.07561703745075884
-0.0812858387713015,-0.07636210753245021
-0.09506129434358532,-0.07138559594479625
-0.09310442017051761,-0.07208617787154706
-0.07549773785962188,-0.07849191103575004
-0.07747676304563822,-0.07776591498708223
0.2961747950535725,0.0018520093999375557
0.2958223357250595,0.0017235236498723465
-0.3906282481223725,0.02130702302457192
-0.07952455752999263,-0.07701372317857486
-0.07518754194415908,-0.07860819120934971
-0.06562586646828754,-0.08213109048086248
-0.06393116802131221,-0.08274231565684016
0.2610438257742734,-0.010959768239503566
0.2597462660893594,-0.011433712575852337
0.2786986355996266,-0.004518882543071227
0.28056996838719134,-0.003836937352990185
0.2778741312161015,-0.004819326707653717
0.297952728411511,0.00249867479966545
0.29439272452765386,0.001201297712189924
-0.39142042669155913,0.021094753262082263
-0.07357811643824275,-0.07920855723794964
-0.07162853202857805,-0.07992916121039693
-0.06971506248076134,-0.08062754728686412
-0.06772544637336286,-0.08135961118376699
-0.0658421872632453,-0.08205233092843346
-0.06186311092129919,-0.08348411820161698
-0.06577481383876198,-0.08207733637892263
0.26494910480267203,-0.009535340870250125
0.26301106237436866,-0.010242335455961976
0.25909181399041925,-0.011673707151653256
0.2572249223607983,-0.012358766071320932
0.2747124313997401,-0.005974627056891952
0.2766645405544029,-0.005260955754569828
0.2729203952578715,-0.006629378940162817
0.29997827446374026,0.0032372890020028067
0.2980968365304964,0.0025511090644149436
0.29028060899833663,-2.9817430203934553E-4
0.2922865134351279,4.3280157634312765E-4
0.2864284831110412,-0.0017019378572778279
0.28838127658509266,-9.90176140984361E-4
0.2844874882115499,-0.002409164304599821
0.2825227719135537,-0.003125174432455736
0.29807788748847536,0.00254418423326124
-0.4023470823191716,0.020489804183040472
-0.40039394082507224,0.02064991446050051
-0.39844081164326156,0.02069043275936843
-0.3964876857266976,0.020699235022085982
-0.3945345600626351,0.02070558468393476
-0.3925814164048233,0.02088671162509955
-0.059818474063524654,-0.0842206845755081
-0.0037258966952596253,-0.10455963888694236
-0.003360284231444108,-0.1046920725293498
-0.006120983534594786,-0.1036958403814423
-0.005286888756525592,-0.1039959753321062
-0.001690697954725396,-0.10530062794436185
0.2708074393218508,-0.007399843068787925
0.2688037843481397,-0.008130401155316928
0.26690174864433347,-0.008823139079031494
0.2551888330594387,-0.013104450514591562
0.25323710663418686,-0.013819173694243944
0.2514484908419991,-0.01447247468107879
0.24733249991322184,-0.015978073470223363
0.24933218619094089,-0.015244586583692838
0.24728436877085538,-0.01599576339925097
0.2395799960412704,-0.018835907337702622
0.23878785429289257,-0.019128867226053066
0.30165588630257645,0.0038489901375117503
-0.40625344642398625,0.019381680126639197
-0.4043002593331471,0.019984681552817112
-0.4071954321143846,0.019143252327655513
-0.058055076587432496,-0.08486724121489467
-0.05600923138062506,-0.08563185020427519
-0.05594841874993106,-0.08565452173998843
-0.049277870022946216,-0.08808318067819096
-0.04823820924324099,-0.08845930160294545
-0.04429553216001662,-0.08991099903815745
-0.04246234220188736,-0.0905951008579147
0.012981366343105748,-0.1011980545183934
0.013830778173273866,-0.10089246383551166
0.009076060262704626,-0.1026086463732851
0.010478660871748029,-0.10209981326304811
0.011006594389385477,-0.10190866669984772
0.007134806448411159,-0.10331358860287335
0.0033290323340399147,-0.10469206613843204
0.004005320680110248,-0.10444694125155032
0.005255822641646164,-0.1039948610534634
0.0015737312369352137,-0.10533126022996268
0.0013545015831158604,-0.10541145144930428
-0.007167593644509781,-0.10332157585889953
-0.0016059500488180617,-0.10533155591515417
-1.6343882862094344E-5,-0.10591507338978233
-0.008344495185620247,-0.10289862067676225
0.016913414156956904,-0.09978933150700231
0.01681037508575083,-0.099826091655153
0.17710308584354936,-0.0415685612466974
0.1790313780552806,-0.040868378264878005
0.24543180200349485,-0.01668246672665094
0.24348004445810184,-0.01739710437701395
0.24154641073827193,-0.018107845905888747
0.23763304284294984,-0.019563749052208153
0.23577010789394248,-0.020250546895359368
0.30333390828102874,0.004465965053809756
-0.4101597785266816,0.018584399721114406
-0.4082066180767099,0.01892863252618332
-0.054038208901547626,-0.0863717374478923
-0.05210969148092897,-0.08707203894077546
-0.05015160024418146,-0.08776927808349586
-0.04725629053200417,-0.08881921114598446
-0.046245088561621836,-0.08919031813884291
-0.0408096547866363,-0.09122877505826553
0.015041466240463451,-0.10045897151052537
-0.01214475353554572,-0.10153349406770062
-0.011045351683496164,-0.10192663822487044
-0.009112942568151297,-0.10262347726780074
0.018855463404320497,-0.09910644307154125
0.1870365269051278,-0.038011349590210755
0.18760151326262278,-0.037815628180165456
0.1751238640032134,-0.04228666298969277
0.173170796755148,-0.042997701108665395
0.1713146247157591,-0.043675404585441294
0.1692656153508106,-0.04442239678375585
0.1672114921297414,-0.045171911792503835
0.16681913686274125,-0.045314947575709086
0.18490530317258197,-0.03877572900339659
0.1829085637853472,-0.03949330811231911
0.18064317280438255,-0.04028502167386215
0.23178419838653264,-0.021725328940466714
0.23373368319755516,-0.021004445003157325
0.23000109475043584,-0.022382812362723513
0.22952295364184166,-0.02256235918577476
0.3497714237228617,0.04640907085780038
0.35156195989707906,0.04757241150947025
0.34457625931090513,0.04250335569216286
0.34765540988912425,0.044658569479008356
0.30345502158187,0.004509612915319398
-0.4140661170755056,0.01772450663236975
-0.41211294021525313,0.01822813610664495
-0.04040875209760529,-0.09138623391142162
-0.03838764394334497,-0.09217959901876918
-0.01406748229555136,-0.10086119995665956
-0.01302408178484637,-0.10122584682453016
0.019146555528869454,-0.09900453890211179
0.06574344621931376,-0.08208101915791759
0.06769631135222955,-0.08136942555422133
0.06390039677593444,-0.08274763405985619
0.05979432108927815,-0.08424418186941338
0.06183653345504432,-0.08350095643665073
0.05597465383208628,-0.0856267110249351
0.05802796460581157,-0.08488260877615944
0.05399700864360064,-0.08634840942305627
0.05207332076844218,-0.0870619833167017
0.051588139926843704,-0.0872421661267818
0.08706199878200184,-0.0743972972513231
0.08539804269883539,-0.07497397539373594
0.08260792193423805,-0.07595550529581302
0.08127740672274744,-0.07642878603478077
0.07547884881081578,-0.07852986303696335
0.0774617818823845,-0.07781460403582043
0.16142265987761314,-0.04730075260780846
0.16341076891513473,-0.046567481086280595
0.16545081103432677,-0.045822257533072
0.18736350227083798,-0.037995865442548245
0.18098727399701184,-0.04016511440784338
0.2278896266791125,-0.023179183857489363
0.22590070440704918,-0.023934263807937
0.35546842669493045,0.04967801550533271
0.3437488479782148,0.04162911146763513
0.3411129324931694,0.038597462229549524
0.3038615035581551,0.004654241688367336
0.35673527810681327,0.050314603932426455
0.3593748736319231,0.051590706617100746
-0.415941804367847,0.017191027778018113
-0.0196704195930444,-0.09886286344183956
-0.018897908686277796,-0.09913320864585061
-0.021892362441152356,-0.09811631205437699
-0.020979577084685,-0.09840953870540634
-0.016858640709416985,-0.0998688561458915
-0.037555196753333915,-0.092507323478433
-0.034608617328120754,-0.09368158116650505
-0.03263598005562972,-0.09440892992826781
-0.015091516539569354,-0.10050667997639946
0.042433886034010423,-0.09060680386184915
0.04426564721284522,-0.08991876569622176
0.04122343373399641,-0.09107582634452718
0.020931579862929355,-0.09839666732874215
0.020941058119802056,-0.09839358291293206
