"Plane Section: Position[X] (m)","Plane Section: Position[Y] (m)"
3.5,1.2409593776281918E-4
3.2699999999999996,1.2581420082244269E-4
3.04,1.30170447511261E-4
2.8100000000000005,1.3699794101643668E-4
2.58,1.471439477824289E-4
2.35,1.6573937746499506E-4
2.12,1.9024108118329203E-4
1.8900000000000001,2.21339596314242E-4
1.6600000000000001,2.694658783345364E-4
1.4300000000000002,3.4011294709488076E-4
1.2000000000000004,4.1218144585264003E-4
1.1760000000000002,4.490500660130338E-4
1.1520000000000001,4.622880152695077E-4
1.1280000000000001,4.8064228406089664E-4
1.104,4.99798183979821E-4
1.0800000000000005,5.189603657529792E-4
1.056,5.386789574920341E-4
1.032,5.575876288459683E-4
1.008,5.802830571770376E-4
0.9840000000000001,6.045967185311724E-4
0.96,6.270301644634564E-4
0.936,6.5319867452248E-4
0.9120000000000001,6.83689738283373E-4
0.888,7.143646939522703E-4
0.8640000000000002,7.466087287073348E-4
0.8400000000000003,7.837339692089204E-4
0.8160000000000002,8.232477004570427E-4
0.7920000000000005,8.67865468025517E-4
0.7680000000000007,9.158175760894883E-4
0.7440000000000007,9.684967075156722E-4
0.7200000000000005,0.00102743192487107
0.6960000000000006,0.001096569760679553
0.6720000000000005,0.001177400497177122
0.6480000000000005,0.0012709403252683005
0.6240000000000003,0.0013831853222999282
0.6000000000000004,0.001532025090670628
0.5760000000000003,0.0017676955116706827
0.5520000000000003,0.002175386549075723
0.5280000000000002,0.002864830260305708
0.5040000000000002,0.0034938173003967524
0.4887700265131085,0.004000000000000612
0.47708142330915027,0.00400000000000056
0.4560000000000003,0.0018904886702206538
0.4800000000000002,0.004312335339788226
-0.47251331796311813,0.00399999999999887
-0.45599999999999996,0.003258605878621478
-0.48996452331718476,0.00399999999999893
-0.5040000000000002,0.0035572207714578644
-0.4800000000000002,0.0043328260417059665
-0.528,0.00291165260138686
-0.5519999999999998,0.0022033047960029212
-0.5759999999999998,0.0017882296729770397
-0.5999999999999999,0.0015430807715953343
-0.624,0.0013894940465529377
-0.6479999999999999,0.001273423552444919
-0.6719999999999999,0.0011804111557366082
-0.6960000000000001,0.0010977074682801404
-0.7200000000000001,0.0010286506003602516
-0.744,9.692752768000036E-4
-0.768,9.14586920642607E-4
-0.7919999999999999,8.671597419747342E-4
-0.8160000000000001,8.228746010011783E-4
-0.84,7.828309010530686E-4
-0.864,7.464866437453667E-4
-0.888,7.132962280277441E-4
-0.9119999999999999,6.819617606588179E-4
-0.936,6.534267817003304E-4
-0.96,6.266075505193157E-4
-0.984,6.025164563993355E-4
-1.008,5.796800960816347E-4
-1.032,5.583521748282002E-4
-1.056,5.377751778471176E-4
-1.08,5.1652675761253E-4
-1.104,4.97359818395323E-4
-1.1280000000000001,4.782669764646694E-4
-1.1520000000000001,4.678120829006983E-4
-1.1760000000000002,4.5255006043003285E-4
-1.2,4.09274321143401E-4
-1.43,3.390419122005075E-4
-1.6599999999999997,2.689694687280015E-4
-1.89,2.2201719399358847E-4
-2.12,1.8935276115821843E-4
-2.3499999999999996,1.6585533728455837E-4
-2.58,1.4768370809166225E-4
-2.81,1.3685291805247272E-4
-3.04,1.3072836210388332E-4
-3.27,1.2615654672720506E-4
-3.5,1.2435627914458825E-4
-0.23573642528163724,0.01713737093238899
-0.2376022519755212,0.017816221284220363
-0.23955546361906904,0.018526862614268183
-0.25518297170250787,0.02420700709707993
-0.2554587652995211,0.02430726328483184
-0.2532295523121888,0.023496936508183457
-0.2514400503238111,0.02284607097619567
-0.26104460891578796,0.026333430231093777
-0.2590906361115745,0.02562488003205817
-0.2572211989529151,0.024946816359595732
-0.26301308858299377,0.027047447429634067
-0.26495236450473564,0.027751052668269452
-0.23174262711270366,0.01568426963482676
-0.2336958378199369,0.016394913537203164
-0.22995680384591383,0.015034260766248433
-0.22783621066126478,0.014262968195183736
-0.22583718128426689,0.013535666118029421
-0.24732083602600036,0.02134933035655661
-0.24932270283650365,0.022076824712875955
-0.2401095831942818,0.01872846293458622
-0.27081687935650745,0.02986957008754202
-0.271836248507688,0.03023775253264019
-0.2688108634450247,0.029145498659863538
-0.26539314147970117,0.027910992479412963
-0.282558597420354,0.03407174628856364
-0.28263003536375536,0.034097270695282525
-0.28060054269389373,0.0333744103240435
-0.2142541784691708,0.0093210282415329
-0.21611700259943115,0.009998950433713296
-0.22392977908427453,0.012841708309855978
-0.22197656772314772,0.012131066203917214
-0.22004331398085128,0.011427671290614824
-0.21807017027242936,0.010709712563728345
-0.24541571490148917,0.020657093305782404
-0.24346226479042446,0.01994710711576108
-0.24152608154808675,0.01924337228224213
-0.276685004266564,0.03197816962063914
-0.27742804682034966,0.03224539228348573
-0.2787238659937977,0.032707146740463135
-0.2729334725408069,0.030630041114923595
-0.2747284931484083,0.03127659291254907
-0.2669069004318998,0.028458055803823053
-0.28647970124251787,0.03545269628305349
-0.2880575721118567,0.036010438494351316
-0.28453068490948363,0.034767505507875676
-0.208475474276962,0.007217305454873417
-0.21025758409606876,0.007866431854517447
-0.20435510424585374,0.005717679396826394
-0.2063514001070762,0.006444491772545713
-0.21221070961970045,0.008577309781166467
-0.2923679365922137,0.03750484503772006
-0.29034959244729003,0.036807761996323074
-0.28843991362260757,0.036144092508646926
-0.30014466145728635,0.04017964135979013
-0.30020794801975115,0.04019985877626317
-0.20049234237837837,0.004310982039806883
-0.2024453204902132,0.0050222649497879135
-0.19856205265873234,0.003607853986960134
-0.19277396318366535,0.0014991506595332087
-0.19463357939137255,0.0021766625654254107
-0.19093381306555732,8.287424702630135E-4
-0.2936430835719897,0.03794989480612762
-0.29448732701497166,0.038238206957864285
-0.2962811969631636,0.0388612020812207
-0.29820394284496216,0.03951835229983379
-0.30194239146692065,0.040687416173731054
-0.18486940965216694,-0.0013817322878060525
-0.182875861812546,-0.0021080826200874023
-0.18877502189153125,4.1778557676358216E-5
-0.19072779242895566,7.536317352883363E-4
-0.18699683982539747,-6.069270160093234E-4
-0.1965864858313859,0.0028881423788561077
-0.30221896246058566,0.040786385523671774
-0.17708318598930267,-0.0042185197533472375
-0.17901073145161986,-0.0035162846954006153
-0.1731519472621781,-0.005650545920493232
-0.1751048903834044,-0.004939166881082275
-0.17129529220950543,-0.006326921666398618
-0.18096362582645786,-0.0028047717353985205
-0.3038459207472714,0.04139795345245382
-0.30359991689210586,0.040872648236909837
-0.30391100786892145,0.04134970032045124
-0.16924612356354518,-0.007073475825491497
-0.16852521024398087,-0.007336091367083962
-0.30238080337954826,0.04003910373293087
-0.300565424583548,0.03932506114158697
-0.16719169421741842,-0.00782214914499162
-0.16338764158316152,-0.009208567307281493
-0.1613966879766415,-0.009934020628643294
-0.294854738065204,0.0372349545160396
-0.29664506003427377,0.03789054249833622
-0.2907449664382427,0.03572163058147017
-0.2927497257737268,0.03645672059288062
-0.2869032149009978,0.03428918096934291
-0.28885067862335395,0.03501560941578522
-0.2849649605653722,0.03357442324134345
-0.2830108533403908,0.03282926697660636
-0.2810674110417757,0.03209178639817507
-0.2985768254627538,0.03860393172673786
-0.15167029446541697,-0.013477697626541444
-0.14981672824042164,-0.014153238335221741
-0.15948184625941325,-0.010631575166384678
-0.15752893042659682,-0.011343029175048341
-0.15560416056599066,-0.012044434363013778
-0.16542824352562138,-0.008464882711595116
-0.27919995168389333,0.03139920007916923
-0.1457125810258233,-0.015648491464135682
-0.14776455306363917,-0.014900853625084809
-0.1419059255140027,-0.017035545185545127
-0.1439488418552721,-0.016291150379599433
-0.1536231801738841,-0.012766160857482797
-0.13991773894986032,-0.017760563508287475
-0.27718494680671824,0.030604681213323846
-0.27345893285893264,0.02918644790673667
-0.27524650532018263,0.029853461941212564
-0.27137668442525453,0.028331621802439554
-0.2693779387346017,0.027587576951365753
-0.2636614745128555,0.025266141606261325
-0.26559520440732026,0.02598498340421629
-0.26287665150344136,0.02489875314843261
-0.13859366363440254,-0.018243347402036127
-0.13019053439395561,-0.021310049202685918
-0.12834062952735648,-0.021986276370565272
-0.25976696091864926,0.02340601471379447
-0.2617200712539532,0.024084409665376897
-0.25904181634705914,0.023122429108100445
-0.2675205884576448,0.026772075273326645
-0.12628552246112196,-0.022735209265814297
-0.13800059683328736,-0.018459835049581222
-0.1360480261143176,-0.019172237186935
-0.13412640286113436,-0.019873808143859133
-0.13214304086770054,-0.020597470564904224
-0.257818458706904,0.021294645629794568
-0.2576207281354459,0.02119194323225013
-0.12423652992971201,-0.023483238467915092
-0.2566777979188228,0.019238797848071372
-0.12247324213514708,-0.024127864014950463
-0.12107547054926354,-0.024638373969826405
-0.12042885178200394,-0.024875276922016725
-0.11843282875565081,-0.025608723312590707
-0.10686979296107443,-0.029833717781573066
-0.10871635652930095,-0.029157736733872244
-0.2558608202743574,0.018347289385114374
-0.25503038090028984,0.01728563723470094
-0.11457342757134004,-0.027018768991707146
-0.11652574655275244,-0.02630567525764418
-0.1126547323499564,-0.027719880945505607
-0.11066879822045017,-0.028444980119345827
-0.1048117387689203,-0.030583979704029044
-0.10278073644847752,-0.031325305792408116
-0.25390774351168754,0.01611585877778969
-0.2532278952302167,0.015332473269144036
-0.09895626958721555,-0.03272734822511664
-0.09697444032124398,-0.03345371876071524
-0.10276521299229449,-0.031330983653985574
-0.10100201791447788,-0.03197659933684675
-0.2519546686417206,0.013796873643002767
-0.2516277470510597,0.01337931367760404
-0.08128076786057271,-0.03914265376039157
-0.08283429923225592,-0.03858570353493442
-0.09505213604911338,-0.03415492149552786
-0.09309921168727309,-0.03486635207246901
-0.07548423867631705,-0.0412493074053699
-0.07746557280276405,-0.04052965345132686
-0.06390529751087627,-0.045465733243035336
-0.0657445010006395,-0.044788550973010335
-0.25049469067808794,0.0114261641833883
-0.09118240084194791,-0.03556411283129366
-0.0872350723328606,-0.036985901092828954
-0.08919089927294464,-0.03628244474742889
-0.08539801604311699,-0.03767852053113177
-0.08332977529918452,-0.03841027790053438
-0.07951623120277718,-0.03978532815733961
-0.07355843866643849,-0.04194898320064028
-0.07160487337456817,-0.04265865295529252
-0.06969035437668163,-0.04335415628877555
-0.06769784471027103,-0.04407827246712387
-0.06184297608452292,-0.0462232908911077
-0.2501149030598935,0.009473030972902897
-0.06121012462010266,-0.04645678882380801
-0.25080582283926806,0.0075199209083544605
-0.05981259861638546,-0.046999030244635934
-0.2530038537108691,0.005566843423667591
-0.2519548263694721,0.0065005492414387505
-0.05804940555233129,-0.04764614949334761
-0.05652382583173619,-0.04820419474749674
-0.04429365003328119,-0.052700324314952696
-0.04245861021234741,-0.053379347762282
-1.7367887467789825E-4,-0.06861515915493581
-3.326442275761553E-6,-0.0686763723014013
-0.2570257000623257,0.003613805365178092
-0.2558611266320907,0.004175494085147413
-0.25390798102311873,0.0051288229858212015
-0.0559983214545017,-0.048396370149281845
-0.05402179526542954,-0.04912114208663491
-0.0520976228257817,-0.04983338012058663
-0.0501512307890033,-0.0505627569053839
-0.048245158271047944,-0.05127288497963296
-0.04624933490815876,-0.0519964776748661
-0.041047540961318976,-0.05389990755127985
0.0071514907562282605,-0.06608267662924673
0.007766706526902001,-0.06586162706961204
0.005271807314305047,-0.0667624012446439
3.8351969644997795E-4,-0.06853637551834842
-0.004296140540704128,-0.06712693613144703
-0.003351190920109971,-0.06746410524475754
-0.0056416027261586045,-0.06665569186265646
-0.005282859864683548,-0.06678126125654615
-0.0015945077653169745,-0.06809873326243603
0.08539558285237225,-0.03769012471650858
0.08723583736984107,-0.0370062900780712
0.25915690641303635,0.025424511895543046
0.26111162103800967,0.02613102350841921
0.2572866592979469,0.024748673989550093
0.2376573768499291,0.01764647849736243
0.23961137852339165,0.01835494906010718
0.23579097992175538,0.0169691949869914
-0.2578142688347617,0.003379737197121036
-0.2617205409924067,0.002354789488603923
-0.25976740558687,0.0028361178472447136
-0.26367367556159316,0.0019121498356015273
-0.03320497446009636,-0.0568482006546168
-0.03455135765532824,-0.05631882267936844
-0.040396541998368736,-0.05414719869780997
-0.03835955734022196,-0.05489695927503137
0.009096943063626389,-0.06538913714821862
0.009693990795692548,-0.06517869670998505
0.003344785033749587,-0.06746018481064042
0.0015882680274064828,-0.06809840425720225
-0.006907978583592406,-0.06622248302821673
0.0677067576238686,-0.04412104685505143
0.06575285805116055,-0.0448297979561696
0.06391148583307918,-0.04550102221618759
0.059806581521707335,-0.0470007880445112
0.06184837589116267,-0.04625641411362172
0.05804142439812631,-0.047642511359090645
0.055989692151615866,-0.04839095155944227
0.054012187085315674,-0.04911303451144872
0.05208520989328448,-0.04981756744671646
0.050881731040096544,-0.050257955685348965
0.08919221121610965,-0.036304337444722876
0.08333514737436465,-0.03844332582238857
0.08128893445675557,-0.0391833784897216
0.07549485698384524,-0.041296768239606436
0.07747471489082977,-0.040573058310576116
0.23374999873873872,0.016227819435335394
0.23179657081409047,0.01551777240470668
0.23001148182807357,0.014865745978005069
0.22789053577713278,0.014095423028460608
0.22589204224053644,0.013366648676801634
0.214316331953948,0.009131973542062702
0.2161775040998687,0.009814434818317643
0.20854380940591524,0.00701126563276256
0.2103235291229584,0.00766695928371352
0.20442753068700412,0.005500398038968216
0.206421465592775,0.0062336975487169224
0.200569463480746,0.004080801247988822
0.20252008601166427,0.0047985565527393186
0.19864187022329757,0.0033702641615509397
0.2122746735604411,0.008383280565563343
0.2650209960727684,0.027544195699189745
0.26308088300190463,0.02684289092882626
0.25524748173363293,0.02401147611148357
0.2532927346330975,0.023305053730476116
0.25150281509069566,0.02265533555050112
0.24738043213794358,0.021167301624703302
0.2493834688112767,0.021891581459510187
0.2454743003069312,0.020477841792939194
0.24351988401350314,0.019770510465775083
0.2415828202830249,0.019069195032388485
0.27548368717444194,0.0313289076506807
0.2747935270427477,0.03107961725309684
0.2729998776367717,0.030429298662384308
-0.2648078477300133,0.001660848594724137
-0.021026891602466537,-0.06118731812155614
-0.02097940021010915,-0.06120355117308123
-0.036595655892043374,-0.05554289534530778
-0.03259496142153005,-0.05709079238750969
0.011037189265791818,-0.06471759017960191
0.01103778341776534,-0.06471739296366437
0.01269276372154222,-0.06415666816230874
-0.007173931490457357,-0.06613476941290576
-0.008875124173921431,-0.06554807035627327
0.04244037540180896,-0.053347543007623774
0.04427673615054891,-0.05267214770219965
0.04037611777725531,-0.05410938024007266
0.03834046689752778,-0.054862806582722336
0.02154876313720832,-0.06099599069554362
0.020968295413381733,-0.06119133804884343
0.01685714121315328,-0.06267752147644892
0.01889355167305539,-0.06193402332788314
0.07356842851709236,-0.041994717098268484
0.07161450379477985,-0.04270339909677188
0.06970026512421726,-0.04339967251767157
0.05013376836070799,-0.050533072411622894
0.04822435201749707,-0.05123401472901467
0.04623036328709226,-0.0519626480385502
0.09091341577897263,-0.035688594028041636
0.09118660514882138,-0.03559395354080993
0.09311091509264674,-0.034916797759236146
0.07952368726568061,-0.039824100633023246
0.14197746617380755,-0.017250395516891927
0.1399902482049098,-0.017978075375752498
0.1478360299655184,-0.0151155284949385
0.14578408524415784,-0.01586324148316952
0.14402012896249045,-0.01650530393502784
0.18887059781699553,-2.3911038103624865E-4
0.19082013038594414,4.816397709441945E-4
0.18709567786020626,-8.967793072484617E-4
0.1974087855001267,0.002913878748645252
0.19286313782916906,0.0012358504982724504
0.19471991024733087,0.0019211762562327934
0.18497177816480392,-0.001681285196774638
0.18298224110120717,-0.002418655876529269
0.17912584874470336,-0.0038508672031530577
0.17720599871955178,-0.00457424680148797
0.22398538969024034,0.012670631117788255
0.22203312902223174,0.011957376860289144
0.22010105132362753,0.011250750606203539
0.2181292085001973,0.01052921751145758
0.2708846857446871,0.029664978534205744
0.2688792536904414,0.028939303583839865
0.26697564793464806,0.02825087976384496
0.27674866920302116,0.031784954143407644
0.2787850323946956,0.03252079483764151
0.28065830084681814,0.03319742125924657
0.29629477638518986,0.03880836158127286
0.29450478738189345,0.038172256264573795
-0.2656268086189997,0.0015394435778482533
-0.0188972008085619,-0.06192575467455738
-0.02240629961849872,-0.06077886123285914
-0.016860366145017035,-0.06266808582982408
-0.03068977229943743,-0.057863288253036244
0.01302610295261901,-0.06404393916514406
0.015091501142726838,-0.06331938909476117
-0.015098741550197204,-0.06332101841126038
-0.013044286102104747,-0.06407584946271576
-0.011068104950550594,-0.06478372767940455
-0.009130810434402444,-0.06546753103131653
0.036575995244461895,-0.055507176389295046
0.03452686664635694,-0.05626983530747999
0.03438246542741193,-0.05632521924817979
0.02342753706478401,-0.06040585776954854
0.02282644129621077,-0.06058546144525162
0.10394575182172328,-0.031101595447171913
0.10282106469964233,-0.03150273191125739
0.09617994882255855,-0.033834287603204775
0.09507121759151857,-0.034225639735862096
0.13807371910601351,-0.01867903145936809
0.13770702017577288,-0.018814325204404705
0.14968866404227052,-0.014453656801891512
0.14743690412156732,-0.015413633561910108
0.14787472945959737,-0.015221861629329706
0.1966699670256492,0.002640486057966613
0.17687958821397168,-0.00469809372134857
0.18107412970089878,-0.0031266780422148006
0.2903821387976473,0.036699954381169436
0.2923925701386647,0.03741869882018732
0.2865235953679947,0.03531379187563395
0.2884793272891548,0.036017483487192886
0.2845801020694958,0.03461343001814024
0.2826131704251281,0.033903507112703006
0.2982125357792178,0.03948799618842633
-0.2734393281392086,6.365430713411428E-4
-0.2714861989727036,8.292602524459134E-4
-0.2695330696278911,0.0010302257442712753
-0.26757993956008086,0.001264636350821282
-0.2821996535767933,-2.919004396579316E-4
-0.2812518464857833,-2.1206648604028176E-4
-0.022876329490245574,-0.06070421554126201
-0.030001410479586533,-0.058154741524505116
-0.02316046224092287,-0.06064481053333563
0.0325715748099166,-0.05704484664213323
0.024487636785345747,-0.06016049727767477
0.10105019844372855,-0.032127270247709255
0.10488435712026276,-0.030801796781109732
0.09899636739882091,-0.0328558112902442
0.09700426374634959,-0.033553951882287464
0.12434627785501429,-0.02380307142292132
0.12639418465712343,-0.02305205873543096
0.12270146079560257,-0.024415993115873467
0.13613449906365727,-0.019428116950141752
0.1342239003369748,-0.02015997983731326
0.13029134910068146,-0.02160533596561716
0.13224220762733135,-0.020888229097396994
0.12844688221494072,-0.0222965052140678
0.10604115305303763,-0.03047944136709483
0.12258715304347391,-0.024459135778292472
0.1205443161523758,-0.0252108174680676
0.11854850882250495,-0.025944857345718747
0.16355309909984564,-0.009681468447074945
0.16157806556471274,-0.010450664841392373
0.1655878290703422,-0.008921649541608538
0.1464702547240096,-0.015976128954272355
0.1752341655521713,-0.005312650598849717
0.17328709243150411,-0.006040158483725282
0.1714362273175532,-0.006732443097287755
0.16939311205063476,-0.0074956299820080055
0.16734519039271054,-0.008262184339496874
0.29991888030990377,0.040081534134749866
-0.2792987170137989,-5.218032535838822E-6
-0.2773455869336487,2.2976340769593681E-4
-0.27539245732029477,4.43151322804664E-4
-0.28515810174379913,-4.552547434710789E-4
-0.28320497461499555,-3.567995260275135E-4
-0.028782047557620365,-0.05869889540854284
