"Plane Section: Position[X] (m)","Plane Section: Position[Y] (m)"
3.5,8.437859502537931E-4
3.2699999999999996,8.55960551550343E-4
3.04,8.898183027558007E-4
2.8100000000000005,9.378604764556606E-4
2.58,0.0010172782639163748
2.3499999999999996,0.0011487855915801926
2.1200000000000006,0.0013227594812542068
1.8900000000000001,0.001561010157690208
1.6600000000000006,0.0019284513420037104
1.4300000000000002,0.002464670495073441
1.2000000000000004,0.0030376169983116438
1.1760000000000002,0.003352233907157725
1.1520000000000001,0.0034902326819148755
1.1279999999999997,0.0036551689041456727
1.104,0.003837069227947912
1.0865167490942969,0.003999999999999981
1.08,0.0040612605728477715
1.0560000000000003,0.004285806144893263
1.032,0.004525326819226044
1.008,0.004788137161336064
0.9840000000000001,0.005038015237303093
0.9600000000000001,0.00530209204931714
0.9359999999999999,0.005590482968197072
0.9120000000000001,0.005894396259890029
0.8879999999999999,0.0062275163418455785
0.8640000000000003,0.00659316121916549
0.8400000000000001,0.006998434915362402
0.8160000000000001,0.00744104132187166
0.7920000000000003,0.007967024329429709
0.7680000000000005,0.008545418052616756
0.7440000000000003,0.009191850234613403
0.7200000000000004,0.009899454900072862
0.6960000000000003,0.010642796175705814
0.6720000000000002,0.011657823352157662
0.6654247739529073,0.01199999999999977
0.6479999999999999,0.01289177797493796
0.6240000000000001,0.014228549372036768
0.6000000000000001,0.015900968144312685
0.5760000000000003,0.01808178842179426
0.5589720555764752,0.019999999999999088
0.5520000000000003,0.02082074209836709
0.5280000000000004,0.023387175163853604
0.5040000000000004,0.025670801472890543
0.49033316733491333,0.027999999999998665
0.4800000000000004,0.02990941106665305
0.45600000000000035,0.03483459735008271
-0.4905306366224945,0.027999999999996916
-0.504,0.025692449241111692
-0.4799999999999999,0.029960992988623012
-0.45599999999999985,0.03472783443242901
-0.5279999999999998,0.02342072334720476
-0.559415541879908,0.0199999999999979
-0.5759999999999998,0.0181417365744413
-0.5519999999999999,0.02086256671377045
-0.6000000000000002,0.01591311139503425
-0.6240000000000003,0.014219243977917625
-0.6655011428647825,0.011999999999998663
-0.6720000000000004,0.011676865378245473
-0.6480000000000002,0.012857204462279514
-0.6960000000000004,0.01067289311869513
-0.7200000000000003,0.009854484022648019
-0.7440000000000002,0.009148220458067242
-0.7680000000000002,0.008511442972812552
-0.792,0.007938508837510598
-0.8160000000000002,0.007420880377866451
-0.8400000000000002,0.006967186577352729
-0.8640000000000001,0.00656329260462177
-0.888,0.006194643878930963
-0.9120000000000001,0.005850783403432858
-0.9360000000000002,0.005558495418055977
-0.96,0.005278484912173367
-0.9840000000000001,0.0050064436660502785
-1.008,0.004764563565144218
-1.032,0.004519718576185282
-1.056,0.004287058463563536
-1.0881734828489216,0.0040000000000000886
-1.104,0.003863130020098142
-1.08,0.004071128243558453
-1.1280000000000001,0.003688731377760164
-1.1520000000000001,0.003518384923432979
-1.1760000000000002,0.0033779275818044186
-1.2000000000000002,0.0030653325601617083
-1.4299999999999997,0.002477170417392699
-1.66,0.0019340006545869178
-1.89,0.0015679191719044719
-2.12,0.0013177069280826906
-2.35,0.0011424964375358984
-2.58,0.0010231169416269738
-2.81,9.437115560448846E-4
-3.04,8.864914318392837E-4
-3.27,8.541788367150875E-4
-3.5,8.480185257249903E-4
-0.30165509015544556,-0.023264807906805393
-0.2999882068042906,-0.023871501276053343
-0.3515711117402196,0.0195717606553953
-0.35133958567205315,0.01930303068907504
-0.3554766265955509,0.024583631050470116
-0.35429477293790057,0.023209714224815457
-0.3575314790548098,0.027116439056304974
-0.2944079211570746,-0.025904050950069313
-0.2961899433272105,-0.025255179027540896
-0.29230130616742545,-0.026671112129029215
-0.29029517468077265,-0.027401599325931447
-0.2883956921095529,-0.028093268556190383
-0.2864426726675488,-0.02880442469542241
-0.28450153293785924,-0.029511254686485702
-0.28253662380390965,-0.030226734904591417
-0.28058360413600447,-0.030937903599250843
-0.3033278336705508,-0.022654442604923785
-0.298089201371896,-0.024563498712482493
-0.3483377698555393,0.015396340313437794
-0.3470108104266064,0.013443020641961314
-0.34766560797930185,0.01448425811217164
-0.3593819966016564,0.030582958891203597
-0.278712107262138,-0.03161939763041435
-0.3033563838564177,-0.022644087676043666
-0.34571286801840495,0.011859249508504694
-0.34537084202226787,0.01148965505548097
-0.3596229632198539,0.03102299589623149
-0.2610534044483033,-0.03804958228352632
-0.2591003905263132,-0.038760766757773873
-0.25723181218867425,-0.03944118981537134
-0.2766775701350405,-0.03236025563928313
-0.27472454560872467,-0.03307141099166055
-0.2729318173492894,-0.03372426047881581
-0.27081850425435694,-0.034493742837587445
-0.268814542070992,-0.03522345640909534
-0.26495944223476187,-0.036627240639316175
-0.263020988529552,-0.03733310469923354
-0.3034858739862868,-0.022599628385180585
-0.3440517390919269,0.009536336536469106
-0.3423926074953979,0.007582968138960919
-0.3437601285008646,0.009231218477845015
-0.361629616415702,0.03492954029237963
-0.25519435129092827,-0.04018310442290871
-0.25324133606801297,-0.0408942853245213
-0.25145210943978663,-0.04154590727369043
-0.26691246414176073,-0.035916078093698005
-0.30357041852620004,-0.022572903437736398
-0.3418073143598933,0.0071119058186776335
-0.3403077321721599,0.005629537289494014
-0.3384897597185586,0.0036761455917660776
-0.3398544721558647,0.005183902935572695
-0.3632873036662305,0.03701136790629212
-0.3647529036063123,0.03883624848654971
-0.23575159481400815,-0.0472631521191155
-0.23761721782424539,-0.046583742257719135
-0.249335304471978,-0.04231664396894805
-0.24733390998966992,-0.04304543589637043
-0.23957023180544917,-0.04587255794609206
-0.3036626976004684,-0.022545056595829192
-0.3379016564016286,0.003075588136245618
-0.3365979285060371,0.001722743059762899
-0.3346300420039669,-2.3067062871854867E-4
-0.3359488219663419,0.001094624638399934
-0.3668946722009165,0.04274281270264784
-0.23175818840702633,-0.04871732959285806
-0.23371120600231574,-0.048006155206320525
-0.2299725033448292,-0.04936771805296968
-0.22785219380554045,-0.050139789832662915
-0.22585337294179336,-0.050867664697254455
-0.24542927512107193,-0.043739008779088456
-0.24347626166760045,-0.044450194539982536
-0.24154050748184955,-0.04515510805831646
-0.30384866050502496,-0.022484381183588746
-0.33249881485427424,-0.002184108277494655
-0.3339959793652303,-8.306712839034108E-4
-0.3671925115814101,0.04411569221055025
-0.36773878613005684,0.04664918656697129
-0.21427147346492748,-0.05508533338930076
-0.21613413466481918,-0.05440696366184326
-0.22394616502488396,-0.0515621562088167
-0.22199316091596025,-0.05227336763192639
-0.22006012237682848,-0.052977353691104005
-0.2180871514225205,-0.05369578697509783
-0.3041770361234285,-0.022371544465427884
-0.3320431151826399,-0.0026088432618595107
-0.33029812371709955,-0.004137556115878038
-0.3279300688585467,-0.006091028504693342
-0.3281373488117731,-0.005906097137405116
-0.36889213105241153,0.050555605792106356
-0.20861550778508464,-0.05714514021805115
-0.21027513980403656,-0.056540645896702504
-0.21222815060968162,-0.05582945286428106
-0.3043594314562816,-0.022317650207985224
-0.33009024146306576,-0.004322000301988953
-0.326184468852574,-0.007576717740820955
-0.32566712780896995,-0.008044485474459396
-0.3233955075163354,-0.009997943717374448
-0.32423159317440886,-0.009276522743396314
-0.3710187856877454,0.05446216779115276
-0.20849304000249652,-0.05718979969635957
-0.20437327993394133,-0.0586911010056603
-0.20636932848442788,-0.05796360946955424
-0.3045288158016239,-0.022273258214687626
-0.3210390865777052,-0.011951414399617902
-0.32227871671096736,-0.010970974444420339
-0.37412785229225004,0.062275123941340695
-0.20246361710199756,-0.05938684749227594
-0.20051094200600544,-0.06009896245854496
-0.19858099577277477,-0.06080303367280003
-0.3049917526772493,-0.022121207415568344
-0.3055279514273468,-0.021944887996711238
-0.3055106380525613,-0.021949073982586637
-0.32032581793672554,-0.012513330250915212
-0.3183728755770744,-0.013758558256386532
-0.3181784813051494,-0.013904959040207606
-0.3155279282513631,-0.015858472868423606
-0.3164199557262094,-0.015157231818660044
-0.3750020336127357,0.0644174938133107
-0.18488935620551084,-0.06579537404789433
-0.18289595158270655,-0.06652211749042546
-0.19074777578781132,-0.06366011196953957
-0.1887951039160511,-0.06437223579027969
-0.18701669272151086,-0.06502031166897752
-0.19660558129477745,-0.061523163502886974
-0.19489475506183532,-0.0621468460363358
-0.1946528460665668,-0.06223511333261818
-0.19279361680572876,-0.06291368771301459
-0.30563653646257183,-0.02186455710001644
-0.3144670525260636,-0.016669415671140886
-0.31261541382321,-0.017812025123513
-0.37710344646862615,0.07008806051256855
-0.3804728698285109,0.0779010548542401
-0.3828121040416991,0.08098079201693371
-0.38630229660823856,0.08571441005156638
-0.39062309469521256,0.09127079088910602
-0.17710353564713094,-0.06863326781011223
-0.1790309991376432,-0.0679308078048573
-0.18098377607418692,-0.0672189725155419
-0.2647800793245358,-0.037104016426659156
-0.2650884171411515,-0.03698143460140042
-0.30575026431566854,-0.02179476966591617
-0.306655199282022,-0.021079014376818264
-0.3061264087983131,-0.021719227031754766
-0.3125141052425292,-0.017881076891975267
-0.4296928743067233,0.04164752657418346
-0.429174950355538,0.04275194853975166
-0.43164613657375833,0.04071190125288907
-0.4312322253760271,0.040799125298534716
-0.4335993023299269,0.04043420398382306
-0.42187884709471246,0.05205817130672022
-0.4209388781184126,0.05446949052390808
-0.3926243602697498,0.09352783751334906
-0.39843435108795966,0.0997492081886717
-0.4002258280288617,0.10134145264975564
-0.17578472514621385,-0.06911372406006971
-0.17317242924240298,-0.07006565709021421
-0.17512528797367785,-0.06935404642754099
-0.17131605653600812,-0.07074280807394706
-0.2657186740660509,-0.0367622399494978
-0.26509994724063063,-0.03701309883541343
-0.31056115471175,-0.019070601190903935
-0.3094796678268979,-0.019765610124236686
-0.30860821333653476,-0.020322540234783866
-0.4394589748459984,0.038406425063483345
-0.4387654938986966,0.03884710532580378
-0.4375056753322808,0.03959596622617199
-0.4257858213696134,0.047120974552975425
-0.4223776116461034,0.05056345152839327
-0.42622654435832585,0.046657766082793914
-0.43555246315362306,0.04019013208432397
-0.4197412504530744,0.0583755648870215
-0.4054955784087814,0.08571722549653907
-0.40624873794771565,0.08688679452349934
-0.4062458894240427,0.10630557843113486
-0.41097830841323646,0.0935305298372318
-0.41405978200373955,0.09681274099396106
-0.1692675530402972,-0.07149118870504902
-0.16721327340775266,-0.07224027292205934
-0.1614179413153585,-0.07435124881969625
-0.1634089554765369,-0.07362596200646548
-0.44141223729301815,0.037469572776044055
-0.41797133292766697,0.06067588821459305
-0.41707297458931364,0.06228142352209308
-0.40453644774793446,0.07790458471850145
-0.4189787796610588,0.10134420350309681
-0.41043973436064907,0.10915545100238906
-0.4218709680896128,0.10577045004624419
-0.15169121393131835,-0.07789400802397396
-0.14983744749468442,-0.07856899865899228
-0.15950309837075874,-0.07504879984025652
-0.15755018625389172,-0.07576026389415355
-0.15562536045192843,-0.07646151522696631
-0.16544968064803642,-0.07288261609038994
-0.44264757450918724,0.036894549763649316
-0.44336548904947165,0.0366055995372978
-0.417314988041828,0.06618770906484395
-0.40625049552742215,0.07490512804728211
-0.4140575335519472,0.11214075106432911
-0.42187003773675047,0.11211279551553438
-0.426218617898583,0.10915776559239809
-0.1457331623289172,-0.08006387257403444
-0.14778519923079575,-0.07931641306733453
-0.14192668538826558,-0.08145141628598311
-0.1439694714459126,-0.08070666391165335
-0.15364427972281264,-0.07718296599501098
-0.13993862478153857,-0.08217678010788995
-0.44531864645037694,0.036384861290537196
-0.4140636102694305,0.07071491883233258
-0.41617241829831597,0.07009379150435109
-0.1383655530481251,-0.08275173715991378
-0.13021396868609136,-0.08573326164723855
-0.12836369173160717,-0.08640846603717328
-0.4472717771360526,0.03634624447042637
-0.1263090207403271,-0.08715859623794892
-0.13802216461234326,-0.08287792398068528
-0.1360709517896092,-0.08359405467662949
-0.13414936082022205,-0.08429571361399776
-0.13216620438614896,-0.08501994000138022
-0.4492249139859481,0.0362656053260636
-0.1251247507750848,-0.08759169246565528
-0.4511780871285034,0.03593755398795716
-0.12426119533913305,-0.08790982993273422
-0.12045662560785142,-0.08931040280396313
-0.11846109934302347,-0.09004521108983993
-0.45313128593174934,0.03543457020137489
-0.12249986344534852,-0.08855982590291131
-0.11829876403365419,-0.09010502901286073
-0.09897339616388467,-0.09713322247798296
-0.09698863408613417,-0.09785153718843764
-0.09310819121264244,-0.09924985041441071
-0.0932061326024105,-0.09921442205525462
-0.10690447096318446,-0.0942877965015193
-0.10875251308912862,-0.09361587717888444
-0.10102382025319408,-0.0963953163268803
-0.4542255113720563,0.034943123099618764
-0.1165566558736822,-0.09074940867798952
-0.11460519315215506,-0.09146485309591132
-0.11268848609381496,-0.09217142410387495
-0.1107056775524547,-0.09290510612485044
-0.09293278258757323,-0.09931395873596485
-0.09506374319007418,-0.09854563600851446
-0.10484492828449352,-0.09503397036489791
-0.10104437641864406,-0.09638797899516752
-0.1027948414241471,-0.09577119411742036
-0.455084538090704,0.034567853073743014
-0.09119307456543682,-0.09995226384935113
-0.0872555579257534,-0.10140100295512253
-0.08920669299847808,-0.10068465874025373
-0.08541249372041057,-0.10207711513390105
-0.08506794210994298,-0.10220557970618332
-0.06498333269083278,-0.10951911636770252
-0.06577403391177072,-0.10922850612163418
-0.45703779816246487,0.033647193245065134
-0.08335339048017307,-0.10283397342169846
-0.08005768754937795,-0.10402999558839494
-0.07954283268469674,-0.10421722930783806
-0.08130772398285373,-0.10357552892454806
-0.0790227812665849,-0.10440684260008021
-0.0774934082369422,-0.1049649440833414
-0.07551329685069695,-0.10568795653324492
-0.06941479192880395,-0.10790546091020081
-0.06772709254026549,-0.10851744442146437
-0.06393504806126094,-0.10990628347016612
0.29616641401219435,-0.025358731291582157
0.29438410450366786,-0.02600886930656922
-0.4588235780987071,0.03299067256481526
-0.458991028518186,0.03292911180279538
-0.07358894525679752,-0.10639161049818036
-0.07163602086767215,-0.10710304084970385
-0.06972028872808511,-0.10779521314218658
-0.061879013831334845,-0.11068110485271612
-0.0057460272981495536,-0.13102277616326455
-0.00529981276469413,-0.13118444937057305
0.26104031595057525,-0.03818400757717305
0.2590883728487523,-0.03889813572749222
0.25757219881731497,-0.03945350733389711
0.27665644338682177,-0.032472583845345945
0.2747035994143696,-0.03318423574389061
0.27291128509230866,-0.03383822331590308
0.29227754007713613,-0.02677641442258854
0.2902714754972264,-0.027506952422434415
0.28641939909343006,-0.028910852562343374
0.2883721547949768,-0.028198986825414617
0.284478467236083,-0.029618252424269208
0.2839382164972535,-0.02981520212336653
0.27869090007403075,-0.03173150444896037
0.2805620248476428,-0.031048987352039713
0.29806939809328736,-0.02466596107018723
-0.46094422161622656,0.03246502118105141
-0.060664940745481524,-0.11113321973620172
0.012963049459353193,-0.12838158824695386
0.014603726035071466,-0.12778786933529462
0.010990382677122785,-0.12909798085264276
0.005239948965306938,-0.13118481859775996
0.006352871349239091,-0.1307813439536659
-0.003374276706435307,-0.13188343156540921
-0.007178832430234407,-0.13050553790245717
-0.001620213116815272,-0.13252304233067552
-7.566054494436861E-4,-0.13283960609762877
-0.008123154403953737,-0.13016539894009993
0.016788593239555408,-0.12700010690510277
0.018827405224927277,-0.12626320935161492
0.2707987081263296,-0.03460972933706921
0.2687956799184789,-0.03534201042366186
0.2684075044133248,-0.035483834913623294
0.264943968985459,-0.03675511035813689
0.2630067023285406,-0.037464237557200374
0.25722150038862895,-0.03958324803982641
0.3016469717814714,-0.023359243763191997
0.3014198931410145,-0.02344202333870006
0.29996917282671787,-0.023971040357180937
0.2825141787449538,-0.030335438621997703
-0.46289738153269233,0.03222713400166814
-0.05984293420825457,-0.11144117225852315
-0.05704886248743864,-0.11244996532777696
-0.05602216486478076,-0.11282068019344714
-0.05404392298410091,-0.11354073867601805
-0.053303973572559255,-0.11381361556367217
0.01502140286652175,-0.1276377085296742
0.00906075970376938,-0.12980045656119826
0.007119110909790696,-0.13050423326980684
0.003313839883645877,-0.13188379506113498
0.001558925599615394,-0.1325239825308173
9.89277496379535E-4,-0.13273264150361858
-3.1004417054107764E-5,-0.13310802837357935
-0.01105581433165371,-0.12910867962371206
-0.011983227466610496,-0.12877213776692925
-0.009123896883564537,-0.12980682501161656
0.01893185486657549,-0.12622560871091454
0.020902249871481406,-0.12552080566318655
0.021710070840017567,-0.1252333780135218
0.18700747045623264,-0.06516538320429807
0.18729880167336005,-0.06506087422731725
0.18487745428606894,-0.06593308055764958
0.18288491052978714,-0.06666219126182614
0.2668953177412503,-0.03603934850996937
0.25518938536867153,-0.04033985730546443
0.2532390564281435,-0.04105842235229864
0.25169684376062096,-0.04163260109879416
0.30332477890221216,-0.022741377548534808
-0.46485054597727804,0.031958377946148225
-0.058076637984917176,-0.11207976775065594
-0.05211842160788194,-0.11424932312942176
-0.050171060249044885,-0.11497603080731367
-0.048303304255391574,-0.11569697084606102
-0.021605847631769773,-0.12531443608958265
-0.020971083067399608,-0.12553952121862738
-0.015088364789138735,-0.12765133812055912
-0.013029315808277802,-0.1283935348154522
0.02274397791711482,-0.12486982498081878
0.023965948732894083,-0.1244404239250969
0.08536632042154238,-0.10212067938976661
0.08721379963403475,-0.1014566986145633
0.1891242981129583,-0.06445917416870507
0.18880519986704447,-0.06457040728662003
0.18158424788431446,-0.0671398524483614
0.18290116166329207,-0.06670686126956818
0.18396710731896562,-0.06633538143497159
0.2514550426226443,-0.04172437327302878
0.3510272043800709,0.01920000114630464
0.3515539268029022,0.019782950545277504
0.30336619589333724,-0.02272643761752597
-0.4687568774970773,0.03140293255175452
-0.04827333606027552,-0.11570907970023366
-0.04630268077108018,-0.11650179059590184
-0.045778700174150665,-0.11670991560245228
-0.018897298090975498,-0.1262848449049697
-0.022813808260134454,-0.12489126333177364
-0.016665722496804206,-0.12708556874942736
-0.016856976680957737,-0.1270176001166622
-0.024192522611292632,-0.12441415348962634
-0.03457692552264776,-0.12074782919064422
-0.03261003773736096,-0.12149096623955608
-0.04437208716373684,-0.11727454627262168
-0.04254577502608718,-0.1179775341311301
0.0247074037541631,-0.12418725979016994
0.02580690138404587,-0.1238122931430457
0.06572421688578209,-0.10926205763235045
0.06767887038529868,-0.10855537963841463
0.06388014427842155,-0.10992585965726603
0.059778339827252336,-0.11143414826493793
0.061816142678268314,-0.11067880223349096
0.05801875817692672,-0.11209119686321584
0.05709828483103914,-0.1124283588772845
0.09115794548256989,-0.1000261688464805
0.09289903970617927,-0.09940389670054604
0.0891678570192574,-0.10074838206230631
0.08330445796255974,-0.10286995929719642
0.08125899818398151,-0.10361208059027678
0.07546206965814616,-0.10571763530325859
0.07744320793788267,-0.10499744364478278
0.1419158195686978,-0.08159198600361983
0.13992065261474348,-0.08229781780919843
0.14778717107361256,-0.07949226791616198
0.14573093971658654,-0.0802281984575362
0.1439640185617957,-0.08086211133806945
0.18881214076977593,-0.06458948596680147
0.18704347432290375,-0.06526434817817695
0.18490611182947317,-0.0660118524590166
