"Plane Section: Position[X] (m)","Plane Section: Position[Y] (m)"
3.5,6.384031759071318E-4
3.2699999999999996,6.478161110745727E-4
3.0399999999999996,6.735125749954204E-4
2.8100000000000005,7.101778780388067E-4
2.58,7.699021156875425E-4
2.35,8.694981614586481E-4
2.1200000000000006,0.0010017149374052813
1.8900000000000001,0.0011829299463451985
1.6600000000000004,0.001464403171295532
1.4300000000000002,0.001884900356608373
1.2000000000000004,0.002334352135428501
1.1760000000000002,0.002580901829503303
1.1520000000000001,0.002670772190850003
1.1279999999999997,0.002769140356232217
1.104,0.0028802383063280014
1.08,0.0030010056779356514
1.056,0.003127534063122963
1.032,0.003272945397889313
1.008,0.0034427510583916205
0.984,0.003620260533242525
0.96,0.0038233009403070457
0.9420617441582103,0.004000000000000001
0.9359999999999997,0.004060274667883513
0.912,0.004308193157131615
0.8879999999999999,0.004570403462457254
0.8640000000000001,0.004850679681082142
0.8399999999999999,0.005155878267549355
0.816,0.005478813401297384
0.7920000000000003,0.005850963060816372
0.7680000000000006,0.0062575419454188146
0.7440000000000004,0.006713433377524326
0.7200000000000003,0.0072210204641142625
0.6960000000000004,0.007765993964163299
0.6720000000000002,0.00848981747197593
0.6480000000000001,0.009288892190713702
0.6240000000000001,0.010184274918437873
0.6000000000000002,0.011348260137898407
0.5906172500018625,0.012000000000000084
0.5760000000000001,0.013018411898960542
0.5520000000000003,0.015043509724631345
0.5280000000000002,0.01701571023263133
0.5040000000000003,0.01841628999381712
0.48902797890688576,0.01999999999999903
0.48000000000000054,0.02102369146565064
0.4560000000000003,0.024148803597193666
-0.4893078543955205,0.019999999999997665
-0.5040000000000001,0.018460218430933983
-0.4799999999999999,0.021046297957919055
-0.45599999999999985,0.024115025122676034
-0.528,0.01705816622878896
-0.552,0.0150858257207515
-0.5912690960143933,0.011999999999998392
-0.6000000000000003,0.011374202852287244
-0.5760000000000003,0.013095892838412525
-0.6240000000000002,0.010186984003247804
-0.6480000000000002,0.009258300174048256
-0.6720000000000003,0.008488657938369408
-0.6960000000000003,0.007781159127045075
-0.7200000000000002,0.007189963412207598
-0.7440000000000002,0.006688122126824779
-0.768,0.006234802041792766
-0.792,0.005827390423772071
-0.8160000000000002,0.005457501368241172
-0.8400000000000001,0.0051294677551783924
-0.8640000000000001,0.004830270462211949
-0.888,0.004550257025501233
-0.9120000000000001,0.0042821984000927064
-0.9409329833552881,0.003999999999999787
-0.96,0.003822769035602403
-0.9360000000000002,0.004046316478902601
-0.984,0.0036221914985141456
-1.008,0.0034501016276852524
-1.032,0.003289590453967923
-1.056,0.0031452666895298766
-1.08,0.0030143307988368725
-1.104,0.0028965404992579106
-1.1280000000000001,0.002786248853626741
-1.1520000000000001,0.0026832861411059004
-1.176,0.0025887025456596408
-1.2000000000000002,0.0023453637969153333
-1.43,0.0018911906047051918
-1.6599999999999997,0.0014663216004148515
-1.8900000000000001,0.001186845562876598
-2.12,9.976344376659298E-4
-2.3499999999999996,8.652902777207074E-4
-2.58,7.739528102325055E-4
-2.81,7.141139768643626E-4
-3.0400000000000005,6.713821253988606E-4
-3.2700000000000005,6.468970671377353E-4
-3.5,6.41944830280232E-4
-0.3515659995607393,0.03678510621313561
-0.3513353768577758,0.0363738690632626
-0.301649666114388,-0.010099268551445885
-0.2999827654859461,-0.010705929724651037
-0.3491995473709848,0.032467347988485086
-0.346793205914192,0.028560792584903728
-0.34766071653285446,0.029165089487631475
-0.3531576192555188,0.040280350342883006
-0.29440242545689993,-0.012738342895299633
-0.2961844575353819,-0.012089498263342498
-0.292295796015384,-0.013505364416932085
-0.2902896507074084,-0.01423581365944156
-0.2883901529668945,-0.01492744123077185
-0.2864371160234763,-0.015638549304982877
-0.2844959632790282,-0.016345343553064866
-0.28253104220735215,-0.01706079098588318
-0.28057800514789133,-0.01777191191786419
-0.3033507232721273,-0.009478391220919157
-0.298083728023326,-0.011397852645532872
-0.34570782534965705,0.027322482245160117
-0.34507942915063367,0.02660745008563513
-0.3548845390554582,0.04418681952577008
-0.27870649023239746,-0.018453356401527714
-0.3034256245270275,-0.009451144845576534
-0.3446672917550046,0.024654272768408137
-0.34312700711518185,0.022700952285827584
-0.3437551762296759,0.02357240967568748
-0.3554711603996124,0.04536797600217514
-0.35676836866462946,0.04809330862099051
-0.2610476575836608,-0.024883184488220095
-0.2590946290669369,-0.025594328881928214
-0.2572260391417345,-0.026274720116972957
-0.27667193696819325,-0.01919417009329194
-0.2747189016358789,-0.019905295768697748
-0.27292616199421504,-0.02055811399969426
-0.270812831128416,-0.02132754755115887
-0.26880885549825295,-0.02205722419359078
-0.26495372575807763,-0.023460926298293834
-0.2630152558299165,-0.024166745804933148
-0.30355330063093117,-0.009407318664329692
-0.34180232973868163,0.021377626556706726
-0.34120494305049276,0.020747583354260784
-0.33940248055584576,0.0187942296005022
-0.3398494626566426,0.01934510145767938
-0.3588135231685239,0.0519998181888387
-0.2551885609669621,-0.027016587276302094
-0.25323553211535577,-0.027727730750289187
-0.25144629883792236,-0.028379334444616808
-0.2669067644493409,-0.02274980984787594
-0.30362811730891304,-0.00938402605375788
-0.33789660136320065,0.017266962084112263
-0.3374815354926265,0.016840860810941084
-0.33553457130071784,0.014887488719472208
-0.3359437185222982,0.015358617287207771
-0.35937648154058516,0.052687660519608395
-0.23574565791820912,-0.034096232453177035
-0.23761129988835908,-0.03341687465827742
-0.24932947818990073,-0.02915002807339345
-0.24732806712658356,-0.029878774464689083
-0.23956433196807045,-0.032705740049936635
-0.3037264520792624,-0.009353713847327869
-0.33352389516127,0.012934108542763658
-0.33399084528329703,0.013374609244249706
-0.39898457636223333,0.046145540971880894
-0.40039300602464556,0.045602301679703056
-0.401511147339654,0.04419273658578194
-0.3984397401513683,0.04671226335045904
-0.3984397388955214,0.046722159460819035
-0.3970334966312219,0.04666067237011007
-0.3962121500127981,0.04724581965279426
-0.39520716774677667,0.04809818662283136
-0.3906266281519062,0.05153434165611942
-0.39034462549220245,0.052003819582716396
-0.361693983642856,0.05590643375958268
-0.2317522274615027,-0.03555034388115065
-0.23370525908743137,-0.0348392080265478
-0.22996652235314619,-0.03620067729617436
-0.22784619575804063,-0.03697270223463861
-0.22584736188360188,-0.03770054136968709
-0.2454234138154075,-0.030572296699417457
-0.2434703877591926,-0.031283447850639794
-0.24153462074125526,-0.03198832612982888
-0.3038181243894348,-0.009328335651800542
-0.33203795311080675,0.011539797639987245
-0.3315000810335967,0.010980726698797513
-0.40203998462447044,0.04223967868113235
-0.39453326183527393,0.04851115313652069
-0.38990068554792523,0.0559100132768196
-0.36328196973759885,0.05869093843547217
-0.3641115218474982,0.059812990584069595
-0.21426536899667778,-0.041917953543167866
-0.21612805004268232,-0.04123963831398069
-0.22394013881135605,-0.03839499126032291
-0.2219871109753057,-0.03910613752341427
-0.22005405846038206,-0.03981008520599272
-0.21808108496902143,-0.04052851152359807
-0.3040511778714593,-0.009252317401382848
-0.3300850785456871,0.009566239412318158
-0.3295215348669519,0.00902735059947893
-0.32766710053527903,0.007073990250333461
-0.3281322019067441,0.007609023016519603
-0.4023083021893032,0.040286587715731674
-0.39036699760462895,0.05981632248470455
-0.3671875183241893,0.06421834472301315
-0.20848687247501735,-0.04402224668617963
-0.21026900558455108,-0.04337318434996862
-0.20624720816645506,-0.0448378318918915
-0.20636301471185997,-0.04479565484078501
-0.21222203479372276,-0.04266204185800117
-0.30430956331207415,-0.009169635466702878
-0.32617932034607744,0.005690589957212989
-0.32554023197812,0.005120595328446455
-0.3230787599145149,0.003167157944347545
-0.324226394596967,0.0041203631403916845
-0.4023468283401406,0.040107558825607376
-0.3906255214039529,0.060255548329642035
-0.3704400972641504,0.06762629376265414
-0.20436697023328163,-0.04552315759690304
-0.3045364319390414,-0.009102486719180245
-0.320682721340112,0.0012137288639590597
-0.32227347789730915,0.0024788263447963017
-0.4029275378068154,0.03833354128290857
-0.39256651788166247,0.06372285164204233
-0.3749990232370332,0.0720601567526725
-0.20245730203937484,-0.04621888937866475
-0.20050448820925135,-0.046930623386107324
-0.19857452401165784,-0.04763464533539471
-0.19302490357847946,-0.049657738275034585
-0.1946463251619498,-0.04906659012248858
-0.30482227617030805,-0.009024785074480419
-0.3203205506285554,9.20574382854422E-4
-0.31836760334278796,-4.7994293486907985E-4
-0.3180295198116587,-7.397328512052609E-4
-0.3153434563169903,-0.002693198736649072
-0.316414660483892,-0.0019153441489068684
-0.4062534651168635,0.03705999456638642
-0.4043003027642118,0.03735421066954148
-0.40884979832379664,0.036381167820257736
-0.4082066518319047,0.03657380213771547
-0.39453104408924394,0.06598705759358799
-0.3960941420235833,0.06762954933984594
-0.3798544220965658,0.07543998853233491
-0.18488275677872015,-0.0526266354637037
-0.18288930353703184,-0.05335324542829492
-0.1907410043204354,-0.05049090078215343
-0.18878839280214377,-0.05120319041737419
-0.1870101780279773,-0.051851805771384415
-0.19659913282115704,-0.048354839167291545
-0.19278689166843194,-0.04974460368569186
-0.3054903033263117,-0.00879587774527027
-0.30565788738747435,-0.008700920721997796
-0.3055349546572159,-0.008778331670249027
-0.31446171518928573,-0.0033315519117923195
-0.3125087443594329,-0.004546541155947279
-0.4101598718988215,0.03582479593860673
-0.3984368222862552,0.06970512693786877
-0.38281083709775043,0.07746745030016552
-0.17709686036598782,-0.055464321056600124
-0.1790242713354019,-0.05476171677397525
-0.17316570963364797,-0.056896588648621085
-0.1751186117100726,-0.05618509700019396
-0.17130899283542114,-0.05757279468615901
-0.180977078084692,-0.05404996331978281
-0.3123598915266488,-0.004646702375920322
-0.3057777728235251,-0.00864991766551976
-0.3066497972200768,-0.007918467472522825
-0.3062271665139213,-0.008553730669039045
-0.41174442336692263,0.03442841014135992
-0.40114544569612165,0.07153644039726861
-0.39062281246773045,0.08160204606930269
-0.17073107876140503,-0.05778345215029165
-0.31055577070732626,-0.005739290972138029
-0.3091084367148833,-0.006600240011258747
-0.30860279530415236,-0.0069182422958705145
-0.4139225680203061,0.032475561538886914
-0.41211320467608525,0.03418762884903016
-0.4023427172658878,0.07250294581577071
-0.4062486953421376,0.07464596081328173
-0.39422826348118956,0.0832543126799124
-0.169260065782356,-0.05832001219653482
-0.16720625206294104,-0.059070376052138274
-0.1614114416026329,-0.06118278459714423
-0.16340237868915944,-0.060457286089877896
-0.41406655972194506,0.03237498456017728
-0.40757947954684515,0.07544350692740395
-0.39843485912120097,0.08517492574604617
-0.15168498449307513,-0.06472628613637503
-0.149831170426991,-0.06540114596153865
-0.15949669428170132,-0.06188059825462747
-0.1575437513454876,-0.06259197768603131
-0.15561898748020417,-0.06329339914161304
-0.16544300155689093,-0.05971365919298217
-0.4169998391574867,0.030522827038335625
-0.4160198211429111,0.03130010724800454
-0.4140608511552475,0.07735865936994162
-0.4179669959305764,0.07818808061030061
-0.40624729278335847,0.08569816555603767
-0.4218731479065921,0.07896076037379884
-0.14572675365522483,-0.0668956584565643
-0.14777887597213707,-0.06614843351890645
-0.14191994015904297,-0.0682822779368445
-0.143962921104896,-0.06753806075195945
-0.15363807330470342,-0.06401530733617364
-0.13993158289719484,-0.06900682710663503
-0.4207222636533622,0.02857017440972984
-0.4199263658325295,0.02897819201789458
-0.4179731208188517,0.02992377943067366
-0.41405988377605885,0.08498163604532105
-0.4245046021020026,0.0793519048089629
-0.13801449905235472,-0.06970625830109695
-0.136399040227048,-0.0702965582081476
-0.13020589450236394,-0.07256047438803663
-0.1283561801696587,-0.07323722403838952
-0.4218796052605539,0.028076619718429043
-0.42187246086981156,0.08437463054670913
-0.42577926459369175,0.08001151779944668
-0.4296852356777464,0.0822096315419722
-0.12630144965744697,-0.07398719087850575
-0.13606245704417028,-0.07042011203479781
-0.13414158219311553,-0.07112373782090692
-0.13215832872841177,-0.07184769783867347
-0.42773909683158096,0.027158408302238715
-0.425785964095831,0.027219242333552895
-0.4238328061667308,0.027478600709133747
-0.42968508253482585,0.08341640229117585
-0.4335914542014088,0.08245791383976789
-0.43571768436617025,0.08325957781503929
-0.12425198994773587,-0.07473393642267817
-0.4296922347148455,0.027057011728117055
-0.12248812401829703,-0.07537697340552735
-0.12065964568748415,-0.0760459889754977
-0.1204441282657341,-0.07612546913175759
-0.11844890757973328,-0.07686111710202093
-0.4319864905938813,0.026618478859052698
-0.4316454028813165,0.026716982571884356
-0.11459205338720396,-0.07827815637132855
-0.11654241456523409,-0.07755968641771083
-0.11333375031661347,-0.07874119606505806
-0.09766669971304368,-0.08444578782947068
-0.09698494001210056,-0.0846907805231539
-0.10689492063519768,-0.08111095880888664
-0.10873912447570667,-0.08042849810087417
-0.4375049766586249,0.025150983237918877
-0.4355517755911026,0.025750273644830488
-0.43359859099661013,0.02621975609560124
-0.43981903223994295,0.02466634781695598
-0.43945815771006425,0.024709420160434793
-0.11267575312190221,-0.07898584506281138
-0.11068983334606441,-0.07971098304697478
-0.09506018355912331,-0.08538524820711302
-0.09897336192952724,-0.08398251740862
-0.09310571893429159,-0.08609244848377634
-0.10483932725039785,-0.08186797878059776
-0.10279233147411415,-0.08261369136086372
-0.10102599068488362,-0.08325066660961045
-0.4433644573519906,0.024318488123283914
-0.4414113113722026,0.024483685577822115
-0.09118786390806817,-0.08678734152973064
-0.08724319904388979,-0.08821644961741537
-0.0891971528134564,-0.08750784633151343
-0.08539881452139803,-0.08888893595864675
-0.08334135137087366,-0.08965029896221474
-0.08176328239399612,-0.09023644401357614
-0.4453175773961111,0.024357664525033018
-0.08130159236659157,-0.09040807858113242
-0.07748945690337031,-0.09180348168134744
-0.07550997017197755,-0.09252820978777437
-0.06577190709616554,-0.09607205435858421
-0.06392709194761342,-0.09673382260785655
0.2801153532108155,-0.018030931766132376
0.2805657194016163,-0.017866659445185104
0.29807342095829187,-0.011484945602208236
0.2979633868393767,-0.011525013115749041
0.2943889900651804,-0.012829826404300904
0.2961707733260329,-0.012178308010328358
-0.44922385472471205,0.02414256215945241
-0.4472707019135054,0.02436159136777414
-0.07953770855249992,-0.09105254586032674
-0.07358535420860327,-0.09323113785052997
-0.07163362242228953,-0.09394584357535783
-0.06972110725071182,-0.09464685063267264
-0.06772831597923187,-0.09537019377884148
-0.06186341062190791,-0.09748764348316974
0.2649451418532935,-0.023565850132124873
0.2633503906237756,-0.024148965727427807
0.2610429341574238,-0.024998719483336155
0.2590905802582326,-0.025711718314882434
0.2572226956201722,-0.026394048271140745
0.2747083908274505,-0.02000492241279927
0.27666118813737917,-0.019293142323412657
0.2729160358119491,-0.020658798032139443
0.29997389401665064,-0.010792040350121664
0.2922824463383413,-0.013597418988243338
0.29027638765800523,-0.014327971910851039
0.28642429293551447,-0.015731821364723148
0.28837710441275394,-0.015020109033297459
0.2844831700553315,-0.016438696117387
0.2825184214622992,-0.01715461755728925
0.27869502425943166,-0.018550357314523525
-0.45117700286081974,0.023960372808209517
-0.05982741544559782,-0.09824794382803032
0.010998377240115018,-0.1159274753960163
0.012716598026215704,-0.11530536146430465
0.005247934691687413,-0.11801438381057876
0.005282555484286442,-0.11800184295844135
-0.004758576193380404,-0.11820813540412306
-0.0033669261371284216,-0.11871278578763265
-0.005292881097000842,-0.11801493039077637
-0.0071724241358235505,-0.11733740330415686
-0.0016127627348824145,-0.11935239270681033
-0.0010254637690489594,-0.11956741373497404
-0.007181683619914487,-0.11733406931519216
0.27080286043246593,-0.021428659117665536
0.2687991598067969,-0.022159091828840287
0.2668975754944777,-0.022853070476437164
0.26300795339029975,-0.02427519201714995
0.25518632470842567,-0.027138959011466318
0.2532347053591742,-0.027853976799467887
0.25244519699992274,-0.02814430822995189
0.30165166483447087,-0.010180575243884148
-0.4531301466032107,0.023812806133736708
-0.05855160310608279,-0.09872975989417737
-0.053197993350459744,-0.10067908391785843
-0.05210881793088014,-0.10107233960126152
-0.05015606250396523,-0.10178423400685263
-0.04974535432245171,-0.10193623797084848
0.01297193495686019,-0.11521353045304739
0.015031005948958419,-0.11447162184413187
0.00906854591408178,-0.11662938126955522
0.007127289556512954,-0.11733428337831872
0.00332165245183242,-0.11871293469872984
0.001566582693173425,-0.11935268198452392
0.0010805636517470694,-0.11953063905116795
-2.338522962201815E-5,-0.11993685793310965
-0.0091179484036883,-0.11663990026122574
-0.009783809169475226,-0.11639893079980274
0.016380506893617072,-0.1139846647997614
0.01679835013287119,-0.11383444247924221
0.01883931291089625,-0.11310345623423743
0.18289227856557286,-0.05348995597444903
0.18316163880271263,-0.053393120226918854
0.17902430392963678,-0.05489034105146304
0.1770980284045347,-0.05559606692999522
0.251448866434931,-0.02851491034813588
0.24733749980987357,-0.030033219854311996
0.24933586555561837,-0.02929610301328691
0.24543545449114323,-0.03073391051827317
0.24508823413804617,-0.030862582152566487
0.23959635775366633,-0.03292228482935833
0.23955868174209236,-0.032936803512750086
0.30333020582365444,-0.009563830075610381
-0.4573220125489808,0.022715443983271265
-0.4570365273367938,0.02278286945373663
-0.45508332971393317,0.023355015839577876
-0.05807106569887929,-0.09891385600479766
-0.05602105123020504,-0.09966701326631563
-0.054039191900534224,-0.10037713679820902
-0.04824706294213582,-0.10248631858024185
-0.046258187593812644,-0.10322899411918374
-0.04447543278200042,-0.10391751923357018
-0.04431960138474745,-0.10397980276339946
-0.04249945449614331,-0.10469972488173748
-0.014466597497857126,-0.11471235978597319
-0.013024540796904278,-0.11522980918655595
-0.011049883172459137,-0.11594178190004065
0.019546056085259913,-0.11285144989092907
0.020916570941337337,-0.11236768520370308
0.02187793283266069,-0.11203079505990346
0.08537623766305209,-0.08895545185619569
0.08722366714936632,-0.08829133396168676
0.17571730290101376,-0.056101567099596725
0.18490028240126044,-0.05280333849351385
0.18674540951817356,-0.052151672895263325
0.1809775621012368,-0.054179827669199265
0.24348890139284363,-0.03146285321388195
0.24155872772428305,-0.03218310538458655
0.23766180291223565,-0.03368420548443139
0.23691462324747492,-0.03399241740941067
0.35099169500913935,0.03628474159754201
0.3488439500701417,0.032378764121528375
0.3456822414898778,0.02847291532062791
0.34765189938809016,0.03003443776461568
0.30337370412866294,-0.009548129067344006
0.35155908171607236,0.037380962109676036
-0.46094285449648936,0.02217509659471107
-0.4589897027856067,0.022385455225178673
-0.02221757530783839,-0.11195948647069817
-0.020972992136903974,-0.11239415342581342
-0.01754650070539361,-0.11361867039784768
-0.01685609444349384,-0.1138645652810323
-0.03260441326284123,-0.10832491867169367
-0.03286040685401699,-0.10824035619517738
-0.04126782555959733,-0.10517909771574949
-0.015085632347714047,-0.1144932215574963
0.022763650542730857,-0.11173141257007427
0.023483186755455108,-0.11148837678065121
0.0657343347068733,-0.09609738166101964
0.06768724180338971,-0.09538590332693136
0.06389255858117886,-0.09676749609554706
0.05978245232424922,-0.09825296580128591
0.061826316672869,-0.09751428093443758
0.05597018551864892,-0.0996558350856648
