"Plane Section: Position[X] (m)","Plane Section: Position[Y] (m)"
3.5,0.001534566804131633
3.2700000000000005,0.0015548973002238492
3.0399999999999996,0.001616449396578058
2.8100000000000005,0.0017031075017419415
2.58,0.0018458204084977198
2.3499999999999996,0.002075180572774065
2.1200000000000006,0.0023719468762807457
1.8900000000000003,0.0027602844168207416
1.6600000000000001,0.003370023795523184
1.5298594355963793,0.00399999999999996
1.4300000000000002,0.004493522360617798
1.2000000000000004,0.005693193276423603
1.1760000000000002,0.006250535670777356
1.1520000000000006,0.006651800423976486
1.1280000000000001,0.007194841051279944
1.104,0.0076372599185881
1.0800000000000005,0.00805936252271371
1.0560000000000005,0.008354903337528198
1.0320000000000003,0.008673727657816325
1.0080000000000005,0.009082174776064652
0.9840000000000004,0.009503481474658952
0.9600000000000003,0.010014970340294938
0.9360000000000004,0.010579432780844538
0.9120000000000004,0.011169600450816795
0.8880000000000003,0.011876864519638874
0.8844944443435414,0.011999999999999856
0.8640000000000008,0.01270463983772882
0.8400000000000003,0.013596851606729882
0.8160000000000003,0.014574127958179644
0.7920000000000004,0.015669391334663937
0.7680000000000002,0.01685888597912561
0.7440000000000004,0.01819566122854315
0.7200000000000002,0.019681732665401488
0.7156050611917711,0.019999999999999463
0.6960000000000004,0.021375317754567056
0.6720000000000004,0.023445580343797016
0.6480000000000006,0.025962363548485225
0.6317921546409362,0.027999999999998602
0.6240000000000008,0.029025392000085304
0.6000000000000008,0.03254945500761746
0.5811853415232946,0.03599999999999817
0.5760000000000008,0.037045929642417624
0.5520000000000009,0.04173738166626628
0.5426346707577012,0.043999999999997395
0.5280000000000007,0.04750162946415114
0.5138142929964704,0.051999999999996493
0.5040000000000004,0.055839788697719744
0.4941813288047664,0.0599999999999959
0.4836379089068926,0.06799999999999519
0.48000000000000065,0.0721319694794679
0.4764906755385978,0.07599999999999427
0.46865312628174244,0.0839999999999937
0.4654835420221384,0.09199999999999287
0.4649818479418441,0.09999999999999233
0.4636134965906422,0.12166666666665915
0.45760698409653844,0.14333333333332604
0.45599999999999796,0.14504636028665666
0.4525846255105263,0.14333333333332593
-0.5426411538161164,0.04399999999999587
-0.5519999999999998,0.041730178810304816
-0.514124428942263,0.05199999999999514
-0.5279999999999998,0.04753490427492789
-0.49469728545673586,0.05999999999999438
-0.504,0.05603828426643937
-0.5812488482055012,0.03599999999999679
-0.6,0.032551591869552136
-0.5759999999999998,0.03705982749466896
-0.4836437282673,0.06799999999999361
-0.4734842455709601,0.075999999999993
-0.4800000000000001,0.07090201963665818
-0.6314775569558948,0.027999999999997593
-0.648,0.02593125101477979
-0.6240000000000001,0.02898416084105223
-0.4654020793271023,0.08399999999999216
-0.6719999999999999,0.023484280762480284
-0.46471777043223805,0.09199999999999138
-0.7150748556168836,0.019999999999998415
-0.72,0.019624655031215486
-0.696,0.02141109763582015
-0.4645075191893392,0.09999999999999085
-0.744,0.018112245938284775
-0.46300087915955845,0.12166666666665749
-0.768,0.01679850733646379
-0.4566063891714783,0.14333333333332438
-0.45600000000000496,0.1440039220404244
-0.45427862577196354,0.14333333333332432
-0.792,0.01562909992484151
-0.8160000000000001,0.014548037190757106
-0.8400000000000003,0.01357891599768657
-0.8834509009412912,0.011999999999999195
-0.8880000000000003,0.011838632613585257
-0.8640000000000002,0.012677954165468323
-0.9120000000000001,0.011106329110339633
-0.936,0.010492971180172353
-0.9600000000000002,0.009950772859317135
-0.9840000000000002,0.009428869832283904
-1.008,0.008973118056140525
-1.032,0.008567134999306232
-1.056,0.008231270243401333
-1.08,0.007937264310989869
-1.104,0.007594602620290508
-1.1280000000000001,0.007268093216329751
-1.1520000000000001,0.006827093769172118
-1.1760000000000002,0.0064846111123181855
-1.2000000000000002,0.0058394205336787346
-1.531920142556538,0.004000000000000153
-1.6600000000000001,0.0033721904309212875
-1.43,0.004509992998162591
-1.89,0.0027750824131167204
-2.12,0.0023687791397742587
-2.35,0.0020640452853640783
-2.58,0.0018561778195356664
-2.81,0.001714427487697269
-3.04,0.0016108417243797836
-3.2699999999999996,0.0015530063967192803
-3.5,0.0015428223455352505
-0.30167626242613776,-0.058961402773756035
-0.30000941452238483,-0.05956816504820539
-0.3593671451466223,-0.008578663112379304
-0.3567401934479234,-0.012485356076702064
-0.29442917563186216,-0.06160083856514208
-0.2962111833026092,-0.06095192683787373
-0.29232258149004337,-0.0623679569726547
-0.29031646834239266,-0.06309849453794017
-0.28841700417435945,-0.06379021430619597
-0.28646400442680486,-0.06450142452927551
-0.28452288319341157,-0.06520830531389249
-0.28255799323648456,-0.06592383819515425
-0.2806049854786304,-0.0666350395965148
-0.3032569260938891,-0.05838469865186617
-0.298110424133505,-0.06026020067926098
-0.35549723400798533,-0.013827472515635708
-0.3531639942379925,-0.016392209085864737
-0.3495998094630057,-0.020299060069371426
-0.35159168568483967,-0.01798954157536391
-0.35940259060950774,-0.00852827667199932
-0.2787334948964291,-0.0673165509053782
-0.303378059461841,-0.05834100393847351
-0.3477109041314371,-0.022252503569977267
-0.34768615765291294,-0.022271960574224942
-0.34573331106283856,-0.023923411931168932
-0.34546992931775394,-0.02420600643014259
-0.3620273530770122,-0.0046719645409945
-0.2610749515269226,-0.07374717341110082
-0.2591219456876066,-0.07445838008085795
-0.25725338300129097,-0.07513884611861593
-0.2766989650902205,-0.06805742901865171
-0.2747459556217349,-0.06876862572254218
-0.2729532423830074,-0.06942151645532574
-0.2708399499151944,-0.07019105546161825
-0.26883601082589237,-0.07092083245187902
-0.2649809491711221,-0.07232472153253174
-0.2630425212427474,-0.07303065637787813
-0.3034816958705222,-0.05830554142630032
-0.34382951315306853,-0.026159408035026782
-0.34208543241134404,-0.028112827117948602
-0.3437805719120513,-0.02621210015077849
-0.3633079572536373,-0.003288644961869859
-0.365584544449676,-7.65114736583546E-4
-0.25521594387498947,-0.07588082051279851
-0.2532629411751868,-0.0765920358037718
-0.25147371945393443,-0.07724367122302367
-0.26693394876527715,-0.07161349771334188
-0.303535462238869,-0.058290253113058806
-0.3418278133794439,-0.028385832172262725
-0.3402985918868246,-0.03006625341024729
-0.3384130307108252,-0.03201969634702533
-0.3398750453919107,-0.030503485748818275
-0.36721348274101007,0.0010088661485509205
-0.36916664343727223,0.0031417392672964707
-0.2357733607290639,-0.08296134418273847
-0.23763898393250543,-0.08228193485464101
-0.24935693565260264,-0.07801446604792148
-0.2473555641616214,-0.07874332111117903
-0.23959197305089183,-0.0815706822686114
-0.30358977238103824,-0.05827675663623765
-0.3379222601700109,-0.03251891997312753
-0.3365141656310736,-0.033973141526867284
-0.33448497078242473,-0.035926608680540234
-0.33596947307704716,-0.034523256706533494
-0.3711189877661324,0.0054277416406876815
-0.3725047962554897,0.007048552141407022
-0.2317800066635321,-0.08441566538902001
-0.23373298806714848,-0.08370439161794335
-0.22999433554238508,-0.08506609212373803
-0.22787403465938064,-0.08583818767609327
-0.2258752209803177,-0.08656608226968887
-0.24545094730454564,-0.07943694345405233
-0.2434979515021514,-0.08014817768555557
-0.2415622167188871,-0.08085314448316638
-0.3036626420225391,-0.058259240893273
-0.3322521779727453,-0.03788011016120345
-0.3340166598215428,-0.036372419885876195
-0.37475658566255293,0.010955181852687696
-0.21577165941376417,-0.09024580885757541
-0.2161561275904355,-0.090105779096518
-0.2239680518215808,-0.0872606802135719
-0.2220150808844018,-0.08797198272586014
-0.22008204018541416,-0.08867596284963317
-0.21810910057361343,-0.08939448220260358
-0.30379948923460853,-0.058221407484495696
-0.332063819060177,-0.03805844210519722
-0.33011094606555197,-0.03955328454573018
-0.32979285566860794,-0.039833649835145896
-0.3274658837914291,-0.041787167194567244
-0.3281580898437827,-0.041147609014596825
-0.37502423805307383,0.01135750353301716
-0.2142935744049573,-0.09078444543046282
-0.30392337354219623,-0.05819416485969875
-0.326205266187537,-0.04293508396708013
-0.3253639632257096,-0.043740646609931454
-0.32329782699516163,-0.045694119991989864
-0.32425245490255006,-0.04479593449415192
-0.3772828563990053,0.014861857842014827
-0.21029738604593623,-0.09224015693896058
-0.20851553168609144,-0.09288998471821928
-0.20639189274819017,-0.09366399377135871
-0.20439573407648348,-0.0943911828724705
-0.2122503290432607,-0.09152877770279805
-0.30406825002470966,-0.05816624954774287
-0.3211827370925583,-0.04764760162772542
-0.3222996387119833,-0.04662768943203437
-0.3789294463782018,0.01753614659959815
-0.3798704802939393,0.01876854417559374
-0.20053363302264987,-0.09579969470633312
-0.20248626419122737,-0.0950874591770009
-0.19876320126172364,-0.09644510994627532
-0.30449246936354957,-0.058036994489614455
-0.32034681432676604,-0.048410840752548166
-0.31858583267011875,-0.049601164498266584
-0.3157071208428323,-0.05155477488204016
-0.3164409902910208,-0.05093762130938571
-0.38283479523512554,0.022881276681817705
-0.1849122254804794,-0.1014965953283943
-0.18291876266048104,-0.1022231789082941
-0.18881759608391635,-0.10007242157290275
-0.19077049580270034,-0.09936092349227482
-0.1870393628764616,-0.10072098618239712
-0.19860355461375434,-0.09650340288412453
-0.19467604403785507,-0.09793723751999822
-0.19281659298681503,-0.09861520276379673
-0.30503429244146507,-0.05786965123422971
-0.3056853807384058,-0.05756301473702097
-0.30561691315419104,-0.05763060090702937
-0.31839391289717955,-0.049737031574300816
-0.314488136769241,-0.05254795980680397
-0.31316078249523505,-0.05350832922704396
-0.38609689883786913,0.026582094072039944
-0.18258317280695227,-0.10234546951800985
-0.19662854667502117,-0.09722464903869793
-0.30578021066885736,-0.05749671459374687
-0.30667638298768995,-0.05697454035181816
-0.30623387053680373,-0.05741574717243499
-0.3125352515946093,-0.05397056096510196
-0.39064539926622394,0.03412718181250826
-0.39743363341583227,0.050021505799048585
-0.3984548859030551,0.05200050260201082
-0.40399080619031946,0.06564761157228512
-0.40108052619281637,0.0578346207827852
-0.17712657643411273,-0.1043349599066122
-0.17905395720059666,-0.10363227277283191
-0.17319639864738035,-0.10576989915272707
-0.17514900063709815,-0.10505758349718118
-0.1713397003495909,-0.10644615598104235
-0.18100669328269844,-0.1029203253398933
-0.3105823063714857,-0.0550370064317592
-0.3099380832518781,-0.055461997607715696
-0.3086293952292303,-0.056305590110919124
-0.3908550097107831,0.03439539640915924
-0.39410382582276215,0.04220844427645089
-0.406264567152689,0.0687195487003538
-0.4350796719570351,0.1437778543215333
-0.4375013899978999,0.1468776603266182
-0.16929038945297883,-0.10719231931399886
-0.16723573238196782,-0.10794036700971454
-0.16144040344626,-0.11005135153884366
-0.16343149043487337,-0.10932626472815984
-0.40976029456699675,0.07346108442948271
-0.4306314507130775,0.12815210412132938
-0.45312461511921404,0.1574060215704562
-0.1517134532393708,-0.11359349881626121
-0.14985985989623357,-0.11426896477574838
-0.15952549461839421,-0.11074872162569585
-0.15757253090370565,-0.11146004397121874
-0.1556476242036773,-0.11216107313521648
-0.16547217518658103,-0.10858280783099396
-0.4140751795218096,0.07991599991551339
-0.41534637456966916,0.08127452636369328
-0.42114169426775194,0.09690050368712275
-0.42188446847938565,0.09896178289471531
-0.42667376347008346,0.11252643662604608
-0.4626129198414985,0.14378249647689695
-0.14575656204363027,-0.11576654987068273
-0.14780803034531156,-0.11501752897979572
-0.15366649946683417,-0.11288240305386178
-0.46356863812598176,0.12815765739066604
-0.14448119504632517,-0.1162330627197828
-0.1419532597477549,-0.11716281118817805
-0.1439940655028061,-0.11641262088290358
-0.13996576798585542,-0.11788973699375369
-0.46400699220127267,0.11253273107589484
-0.13804901136819991,-0.11859006661160693
-0.13609704041242107,-0.11930411510949511
-0.13589472479596074,-0.11937841973281385
-0.129540355222905,-0.12172018124572617
-0.13024531393606825,-0.1214577565863412
-0.463955531519465,0.096907722177476
-0.1341783393557121,-0.12001370973788597
-0.13219595975412007,-0.1207400692116522
-0.1284036772964109,-0.12215668751171341
-0.46876166300658473,0.08594969804267433
-0.47657602802131654,0.07488870325895297
-0.47036080831557114,0.08128380189666548
-0.1263496323886989,-0.1229085368451456
-0.10691428656402158,-0.1299531662383895
-0.10876268576893305,-0.12928222740494
-0.4776054523659937,0.07347252324571975
-0.10981191494274202,-0.12890451340090855
-0.12430109651370291,-0.12365781922061396
-0.12049363580596012,-0.1250504524532228
-0.11849449562017084,-0.12577533628979554
-0.0970074373400576,-0.13354159018440478
-0.09899039406820775,-0.1328183176509298
-0.10485553316517525,-0.13070150772219138
-0.10280605953936861,-0.1314404159996331
-0.10103840765840003,-0.13207379165413927
-0.4826767553413955,0.06566087816553895
-0.11463021561572817,-0.1271719825628911
-0.11658568950082304,-0.12646755323736397
-0.11270858480471752,-0.1278650322476889
-0.11071887240457419,-0.12857975531855298
-0.12253844650148091,-0.12430419507118289
-0.09508669905909527,-0.13424709264988616
-0.0931340401159801,-0.1349592519093252
-0.48439048380743555,0.06328933112604827
-0.09121744549066835,-0.13565760645974825
-0.0892283323476579,-0.13638249979767522
-0.08727375441193268,-0.1370893894330216
-0.0854281331654279,-0.1377584795843765
-0.08336790977166762,-0.13851226146599568
-0.08132318676655947,-0.13925640803593162
-0.07750972137930814,-0.14064815828450597
-0.07552862353480275,-0.14136846176606876
-0.49220381488804393,0.05836073880486266
-0.07955923640336839,-0.13990069232026628
-0.07360360869925954,-0.1420702942703981
-0.07165460027297182,-0.14279247798291905
-0.07110532878501533,-0.14299994961386295
-0.06396771663010906,-0.14563441002679672
-0.06580967882388697,-0.14496480631421318
0.296147124172399,-0.061073673234933686
0.2943644537714719,-0.06172295363585842
-0.06975074579296905,-0.14351726709151258
-0.06776276322334804,-0.14425381537350615
-0.06354032516620214,-0.14579645043864015
-0.007200554789424373,-0.16620348494673423
-0.005322565323469153,-0.16688518350919024
-0.007907867238437583,-0.16594721420472672
0.01676138853801528,-0.1626934545310997
0.018799593889775354,-0.16195488970896135
0.27867276289349985,-0.06744977854849278
0.28054370536998086,-0.06676676022200051
0.27793464561654646,-0.06771937349559505
0.29805026983964694,-0.06038091869140218
0.292371514017697,-0.06244904391079122
-0.06191244447597932,-0.14641132252575945
0.01293883748746108,-0.1640831614669297
0.014995570636130814,-0.16333482843576735
0.009035842051568474,-0.165500060668231
0.009106368772140884,-0.16547449200370673
0.01096645641099291,-0.16480033795902677
0.007094373247844978,-0.16620426551300235
0.005215804629975266,-0.1668864476614153
-0.003397227713110913,-0.16758446985802913
-0.0016433752253912908,-0.16822390269326562
-1.4688067272241055E-4,-0.16877346425525214
-0.010732667705706724,-0.1649267527895641
-0.009144116671141246,-0.1655007158438718
0.02270937509092997,-0.16054283797197602
0.023956072190436932,-0.1600930278002492
0.019688434970681366,-0.16163317553353496
0.020872190642657468,-0.1612063074908563
0.27664019422819375,-0.06819604802261198
0.2746909699052561,-0.06891765011926063
0.27290023195811713,-0.06957597113669825
0.29995109334162917,-0.05968718576831891
0.29225789712552885,-0.062490544625405556
0.2902526953342453,-0.06322345745252912
0.28640106676623667,-0.06462858965883773
0.28835357972216635,-0.06391605642982981
0.28446082292292973,-0.06533788090628802
0.28249635437026727,-0.06605457228701433
-0.060777468212327074,-0.14686500593000537
-0.01919368025934459,-0.16185791234593888
-0.018910703626915486,-0.161960075773937
-0.022820222101422982,-0.16054729279792634
-0.020983868845680494,-0.1612130496274848
-0.01687180114954357,-0.16269672796267837
-0.026558823591150034,-0.1591943108821505
-0.024774141509189163,-0.15983859482064716
0.003289988965856845,-0.16758617362207603
0.001535368521997006,-0.16822745233689482
5.157565864487566E-4,-0.16859957896670144
-5.460892115858263E-5,-0.1688078091938563
-0.015106341146093504,-0.1633391215479131
-0.013049934029608589,-0.16408857240708202
-0.011076238361790287,-0.16480317644046757
0.026665501627482713,-0.15911948755272293
0.02771502929204666,-0.15874409256113098
0.024664966584091414,-0.15983873871244475
0.08533635407014092,-0.1378064396243653
0.08718219563889944,-0.13713795758761876
0.20153283678836453,-0.09558212911304373
0.20048305693302107,-0.09596085934138093
0.19855171167213548,-0.09666108617336122
0.27259637392916747,-0.06968906964548802
0.27439844419002546,-0.06907512881985092
0.27290273968966683,-0.06958286468836368
0.30163024948966205,-0.05907570923600081
-0.05990245169366985,-0.14724302423190366
-0.029892709556731727,-0.15800798579493824
-0.028687100130905696,-0.15843525804164088
-0.02677403714235327,-0.15911757959007194
-0.030646988367735356,-0.1577429506878737
-0.03245606157699562,-0.15711613264628438
-0.03439402294024216,-0.15647283257726313
-0.032589297127639014,-0.15707241853916712
0.02857819774995945,-0.15843617047367514
0.08752112373183804,-0.13701561623146646
0.08327557108586528,-0.13855868687194287
0.08123095638122889,-0.13930313108461503
0.1907363557038569,-0.09956727651130311
0.18878069831556227,-0.10027119463043589
0.18700393142383623,-0.10092379126615185
0.19657704190679365,-0.09738326416571043
0.19608598030486107,-0.09756358279954536
0.18662384557836983,-0.1010681342020681
0.19856776160944736,-0.09670520615586073
0.20050135210331718,-0.09601115128817425
0.276671349977239,-0.06828169266258995
0.2747100252199783,-0.06897003164174015
0.303307498024012,-0.058453935200052654
0.27871157740621677,-0.06755647651177003
0.2805834816283075,-0.06687610194635167
-0.05937213828657541,-0.14747041788958884
-0.050234188637483405,-0.15078779767912884
-0.05083852324105022,-0.15057802924156438
-0.04831738092376295,-0.15146843998569226
-0.04590947075814497,-0.15237299882580846
-0.04632736858750262,-0.15220799120125322
-0.03458602497922372,-0.15641122502515584
-0.043710170044343646,-0.15331436680251564
-0.044402898067869234,-0.15299755690534653
0.030535519429279883,-0.15773682735628158
0.07444421215121058,-0.1417727260870242
0.07350936657713296,-0.1421114911001677
0.07155649413560566,-0.14282306481322515
0.07152824839246069,-0.14283349336756057
0.0676590764042206,-0.14426910290729933
0.06570739019058158,-0.14498393746509441
0.0649544705240496,-0.14526651278468838
0.10272059999607344,-0.13150575445200208
0.10476978920926085,-0.13076607087172948
0.09112707160175862,-0.13570943510499087
0.09304421022949569,-0.13501257525858507
0.08913710393760117,-0.1364319802816566
0.07946607496830102,-0.13994485808204588
0.07754604938577045,-0.14064434188193928
0.07741642549536745,-0.14069195585073258
0.0754357710557992,-0.14141347751485234
0.10683324735179905,-0.1300306632602748
0.10696767796578185,-0.12998297722261126
0.11842125405992236,-0.12587430274262107
0.11913552390710348,-0.12561898920923975
0.16338387206613975,-0.10949558074871302
0.16139331945774468,-0.11022213688933549
0.16542346751987086,-0.10874912880274043
0.19187717790326347,-0.09915708060021744
0.1965834591842836,-0.09740090474368017
0.19580516853718058,-0.09769067747354196
0.1946560079567496,-0.09818235932260116
0.1927876484092233,-0.09883583692252847
0.1706646952707391,-0.10687374286942797
0.16924838887766616,-0.10737707682308212
0.1671888598877172,-0.10811173220481712
0.18689404047026603,-0.10106347674951026
0.1771050313442751,-0.10457594305577012
0.17903241325932762,-0.10387325798754482
0.20245400505583389,-0.09529897421754388
0.20277075753142446,-0.09519422173312937
0.20245822668443247,-0.09531057913389204
0.20144157283156833,-0.09567775162446186
0.25913443787754764,-0.07479289865155431
