"Plane Section: Position[X] (m)","Plane Section: Position[Y] (m)"
3.5,0.0018749851124852455
3.27,0.001897660555262975
3.04,0.0019714440902771175
2.81,0.0020771527762757963
2.58,0.00224802196814313
2.3499999999999996,0.0025161096155763853
2.1200000000000006,0.002858584058163762
1.8900000000000006,0.0033329953830201313
1.698795727957176,0.003999999999999878
1.6600000000000006,0.004140409019400267
1.4300000000000002,0.00550868727160855
1.2000000000000006,0.006909422672856815
1.1760000000000002,0.007623430977926911
1.1520000000000006,0.008213613514681958
1.1280000000000001,0.008900813960615343
1.1040000000000003,0.009425795799746346
1.0800000000000005,0.009890866327596108
1.056000000000001,0.010208914956285078
1.0320000000000005,0.010582883150955822
1.0080000000000005,0.01108637928242242
0.9840000000000005,0.011592375650620237
0.9683569995527525,0.012000000000000007
0.9600000000000004,0.012221380984366561
0.9360000000000005,0.01290726490153142
0.9120000000000004,0.013613378453239063
0.8880000000000003,0.014684904188362675
0.8640000000000005,0.01615036068362366
0.8400000000000004,0.01761261777573199
0.8160000000000001,0.01875481937279297
0.7920000000000003,0.01998474705973171
0.7917679766844501,0.019999999999999428
0.7680000000000005,0.021480908623024937
0.7440000000000007,0.023073570548185724
0.7200000000000008,0.02491743347113847
0.6960000000000008,0.026948750379015552
0.6865781894659105,0.027999999999998873
0.6720000000000006,0.029620088593423285
0.6480000000000008,0.03282984113995409
0.6281171477617605,0.03599999999999828
0.6240000000000008,0.03671862347829705
0.6000000000000008,0.041118562657391014
0.5875653838332799,0.04399999999999753
0.576000000000001,0.04672770529489653
0.5554838309192969,0.05199999999999709
0.5520000000000006,0.05301360851421646
0.5307054694309274,0.05999999999999599
0.5280000000000002,0.06103150593600873
0.5127596057588919,0.06799999999999541
0.5040000000000004,0.07472113766841446
0.5022732932427696,0.0759999999999948
0.49539890962865146,0.08399999999999405
0.48783675196179666,0.091999999999993
0.483261651960606,0.09999999999999248
0.48223269407298675,0.12166666666665964
0.48523382780787827,0.14333333333332593
0.4859863216029647,0.16499999999999293
0.4699322367391111,0.16499999999999282
0.45599999999999785,0.14839899783651933
0.4799999999999971,0.17093382438228177
0.4537909356146039,0.14333333333332596
-0.5874340056507854,0.04399999999999621
-0.5999999999999999,0.04108371079111452
-0.5552659198542368,0.05199999999999541
-0.5759999999999997,0.04670561249143226
-0.5306730938966426,0.059999999999994745
-0.5519999999999998,0.05294502978084619
-0.5133372321469957,0.06799999999999382
-0.5279999999999998,0.06105742007010281
-0.5031243297141599,0.07599999999999316
-0.5040000000000001,0.07534884728473171
-0.627811529122531,0.035999999999996965
-0.648,0.03280492080432658
-0.6240000000000001,0.03666293387766041
-0.49402670820672506,0.08399999999999237
-0.6865389656008968,0.027999999999997832
-0.6960000000000001,0.026931433312304284
-0.6719999999999999,0.029632974553100537
-0.48579168143612006,0.09199999999999164
-0.72,0.024817642701827018
-0.482184773590425,0.09999999999999096
-0.744,0.02291731388118811
-0.48133509317824213,0.12166666666665751
-0.46894057022595886,0.1433333333333246
-0.45600000000000407,0.13594508193800892
-0.7900131191109752,0.019999999999998616
-0.7919999999999998,0.019875203095477516
-0.768,0.02132393576469655
-0.48349097423152165,0.14333333333332482
-0.47285098918716995,0.16499999999999132
-0.816,0.018549121752247447
-0.483921958201817,0.16499999999999143
-0.4800000000000084,0.1696496380557817
-0.8400000000000002,0.01737216109865345
-0.8640000000000001,0.016169991120943618
-0.8880000000000002,0.014917446133980944
-0.9120000000000001,0.013798961189544663
-0.9360000000000002,0.012926973628150606
-0.9665195683379271,0.011999999999999589
-0.9840000000000002,0.011504675253413362
-0.9600000000000002,0.012188998588098441
-1.008,0.010926363497377013
-1.032,0.010407460262302194
-1.0560000000000003,0.009984748688571694
-1.08,0.009638711355191867
-1.104,0.00922511310951411
-1.1280000000000001,0.008887548833006872
-1.1520000000000001,0.008433034730810685
-1.1760000000000002,0.00790802407957638
-1.2000000000000002,0.007080527910230344
-1.4300000000000002,0.005545884041449851
-1.6998992849875854,0.004000000000000082
-1.8900000000000001,0.0033493053682946737
-1.6600000000000001,0.004141559807965985
-2.12,0.002859535792370996
-2.35,0.002503894442806769
-2.58,0.0022598361702692756
-2.8099999999999996,0.0020906467444833793
-3.0400000000000005,0.0019665604003564477
-3.2700000000000005,0.0018970989770755579
-3.5,0.0018848533502267542
-0.30168598322350465,-0.07348219113852228
-0.3000191304941888,-0.07408894722802253
-0.3516009223789931,-0.0306858205470816
-0.3514144427853592,-0.030913088276356106
-0.34725530520324766,-0.034820056471195474
-0.3476953686584296,-0.03471870790415688
-0.35550631543054373,-0.02572240754583731
-0.3543656781729128,-0.02700632864369417
-0.3577698443125818,-0.02309949080583261
-0.29443890247010196,-0.07612164708827748
-0.29622090750228014,-0.07547272824356904
-0.2923323159799144,-0.07688878647010661
-0.2903262129989681,-0.07761935195474243
-0.2884267505403646,-0.07831107641908058
-0.28647374934083214,-0.07902228265521732
-0.2845326268031405,-0.07972915985829145
-0.28256773722865974,-0.08044469378984266
-0.28061473281311944,-0.081155904369344
-0.3033871039016416,-0.07286133696157225
-0.2981201449933541,-0.0747809934828138
-0.34574252559556695,-0.03635173480195783
-0.34540946904784586,-0.03677350021122283
-0.3437388350063072,-0.0387269137000093
-0.34378980036856993,-0.03866721621885666
-0.35941180310331977,-0.021306999828102652
-0.2787432455423856,-0.08183742477169641
-0.3034218329070863,-0.07284873692953375
-0.34214704282804176,-0.04068031357558177
-0.3613608002909571,-0.019192620715942434
-0.26108473467701926,-0.08826813653356289
-0.25913173184031546,-0.08897935144857427
-0.2572631719173911,-0.08965982507456915
-0.27670872074621267,-0.0825783166427975
-0.27475571731644977,-0.08328952992923226
-0.27296300753363156,-0.08394243015139224
-0.2708497233628465,-0.08471199194184098
-0.26884578743678555,-0.08544177761819499
-0.26499073655055116,-0.0868456962690869
-0.2630523049490509,-0.08755162102768452
-0.30352261490097954,-0.07281485313186131
-0.3418370778512324,-0.040998390793705625
-0.3403022692934271,-0.04263375713213095
-0.33846751444078876,-0.0445871989588029
-0.33988431030822147,-0.04306879607787424
-0.36331731976681303,-0.017059493913512205
-0.36496116417806146,-0.015285749001639665
-0.25522573459240594,-0.09040180441501926
-0.2532727343848889,-0.09111302654978151
-0.251483518622099,-0.09176467833024353
-0.26694373075810784,-0.08613445765842634
-0.30358198154382793,-0.07279742186161088
-0.33793154381809803,-0.045145299237609765
-0.3366150988688737,-0.0465406438348629
-0.3347396999742284,-0.04849409267932795
-0.3359787734673521,-0.04719944336616698
-0.36722282263281186,-0.01273207882239951
-0.3684466549700093,-0.01137889712187617
-0.23578319564740555,-0.09748244945804783
-0.23764881775991226,-0.09680303713443807
-0.2493667424144217,-0.0925354940080006
-0.24736537665060282,-0.09326436479773798
-0.2396018085124772,-0.09609178903637096
-0.30366644205412646,-0.07277255264210651
-0.33283338607307233,-0.05044754686173154
-0.33402599826903956,-0.04922551248567408
-0.370946571046855,-0.007472215416171185
-0.23178986181097294,-0.09893682621249739
-0.23374283601907705,-0.09822553268330454
-0.23000418260075536,-0.09958723073293341
-0.2278838797028751,-0.1003593207528833
-0.22588507398433788,-0.10108723720610334
-0.2454607669872322,-0.09395800689420027
-0.24350778086850433,-0.09466926771679812
-0.2415720508790272,-0.09537424767767891
-0.3037332474662664,-0.07275701371529633
-0.3320732175638493,-0.05121968812817784
-0.33091281438379966,-0.05240100350595403
-0.37112812000072404,-0.007214507433574149
-0.37360764416394193,-0.003565505884312592
-0.22397792391429217,-0.10178188756671114
-0.2220249559837509,-0.10249319833409724
-0.22009190429772668,-0.10319714828703058
-0.21729058676356597,-0.10421738647385659
-0.21811896624954974,-0.10391567193319177
-0.3038109177560909,-0.07274152021436514
-0.3301204347276059,-0.05320152166348967
-0.32897746280460116,-0.05435446270214093
-0.3270173720428519,-0.056307926169912606
-0.32816764873287474,-0.05516506256934881
-0.37503347662602804,-0.0020401293253510784
-0.21430348885900438,-0.10530576910039613
-0.21616606902360144,-0.10462717685554401
-0.3039307945138235,-0.07271584164862702
-0.3262148584258713,-0.057103628624755244
-0.3250365682858448,-0.05826139321409174
-0.3230114083069896,-0.060214867917025
-0.32426206402398083,-0.05901847884281909
-0.37722035088376,3.413679611625666E-4
-0.2103073506944247,-0.10676161843795696
-0.20852549892109104,-0.10741145330927679
-0.20640179451493507,-0.10818528257912499
-0.20440570443956618,-0.1089126600430034
-0.21226023291353407,-0.10605007230680102
-0.304114380409644,-0.07267219992904296
-0.32057932853244087,-0.06216841288068098
-0.32230926195720655,-0.060888937418127786
-0.37893887801555937,0.0028749937184075506
-0.3801290203645128,0.004248120244191947
-0.20054370711039068,-0.11032145668182379
-0.2024963276810708,-0.10960919206357062
-0.20039937121604234,-0.11037407009501822
-0.30465652209767274,-0.07249276058041522
-0.32035638714597514,-0.06233809143611439
-0.31840347778726846,-0.06358716139261358
-0.317767855725881,-0.06412202335216115
-0.31549411590033893,-0.0660755409760837
-0.3164506329143843,-0.06520970542714741
-0.38284432372378463,0.007533442002354427
-0.3834128194974678,0.008154937298905818
-0.18882778597404226,-0.11459450147308745
-0.19078060283439266,-0.11388277586664441
-0.18704963984679135,-0.11524330519386464
-0.18597330509229099,-0.11563577106697742
-0.19861382046411782,-0.11102569143073747
-0.19468615827966895,-0.11245910970930725
-0.19282666151855055,-0.11313694942397902
-0.3054511990252063,-0.07221193330986676
-0.30567292783726246,-0.07208225591653801
-0.30557853320209594,-0.07215985814939926
-0.3144978109898263,-0.06696515629581196
-0.3129782617397041,-0.06802910040462612
-0.3867046545441952,0.012061755741134666
-0.18492264894611202,-0.1160193166052807
-0.18292934462686142,-0.11674633542143753
-0.1966387817996066,-0.11174685318972316
-0.305778822037192,-0.07201066208277213
-0.30668608817571813,-0.07146695619195902
-0.3062291224748266,-0.07193651580157046
-0.3125449236321936,-0.06834164699674157
-0.39065470635654165,0.0197969942530575
-0.1771373059577035,-0.11885852158449652
-0.17906438696856608,-0.118155011330174
-0.17320642461315536,-0.12029152881804167
-0.1751593947181787,-0.11958022402179386
-0.1713496494129916,-0.12096757447100055
-0.18101722258730638,-0.1174433372343279
-0.3105919874469342,-0.06943534913305505
-0.30982103690635143,-0.06998277057530095
-0.3086390994607211,-0.07080819935866003
-0.39070345350283064,0.0198749463093633
-0.3951023900553058,0.027688205967262465
-0.3984651444769818,0.031739185729816474
-0.4015941341390999,0.03550182697933379
-0.4062758420693759,0.04217862759640531
-0.41007121726806806,0.051128290906006964
-0.40714284603278184,0.04331528516295253
-0.16930032857486432,-0.12171371050588478
-0.16724573886511052,-0.12246194317779212
-0.16145043349763455,-0.12457299241933678
-0.16344151602044876,-0.12384789334562296
-0.4124764004700747,0.058941206312906336
-0.4503338682194704,0.12926024401266786
-0.45313379962337064,0.14088517065113854
-0.46326311606175286,0.1605124769043188
-0.4687542689046442,0.1671264882051264
-0.4542403372897183,0.14488591875521747
-0.1517235865951309,-0.12811542337138704
-0.1498702710782423,-0.12879165223722683
-0.1595355036482435,-0.12527030478070106
-0.157582447990884,-0.12598137465008175
-0.15565744973372506,-0.12668215239747724
-0.1654822221493193,-0.12310449515369212
-0.41408491331887165,0.06203714609621705
-0.4171015737456793,0.06675450503392513
-0.4310819444108209,0.098006919417478
-0.4375147525304116,0.10640715183332569
-0.44316488985132946,0.11363400594962175
-0.14697451266101802,-0.1298501288430714
-0.1478188040136118,-0.12954121181414124
-0.15367639906993896,-0.12740368572225935
-0.4218943166208483,0.07997255973357238
-0.42332904582081154,0.08238058053197465
-0.14576875841344056,-0.1302941394244078
-0.14196451375960117,-0.13168781289969989
-0.14400642642800005,-0.13094066225880002
-0.1399771000088097,-0.13241495288874128
-0.13902667590457363,-0.1327629569290171
-0.13806168097138835,-0.13311895547870922
-0.13611174294038592,-0.13383858635620577
-0.13419228392105886,-0.1345460994964357
-0.13026552614994752,-0.13600735718867554
-0.12841672837100365,-0.13668662329597964
-0.12636281076312278,-0.13743882215214304
-0.13329574092539995,-0.13487771417622169
-0.13221574163603916,-0.13528848820338976
-0.09820973178251345,-0.14762709142651836
-0.09899852623089941,-0.14733474664693763
-0.0972491486345053,-0.14797690294267185
-0.09701661215882261,-0.14806088230319311
-0.10692409982680667,-0.14447421131051394
-0.10877238732550876,-0.14380296570726323
-0.10104703027074002,-0.14659156741150411
-0.1127123844303266,-0.14236956361550324
-0.11373842609015264,-0.14199981908568726
-0.11072529578760257,-0.14309149163939688
-0.12431293713151431,-0.13818443100871228
-0.12049975269454904,-0.1395613468015796
-0.1184997739168504,-0.14028392789803582
-0.0951996755794103,-0.14872325090661465
-0.10486254228492461,-0.1452148526274174
-0.10215343770255322,-0.14619092866433958
-0.10281237272752852,-0.1459518499582958
-0.1165905335251295,-0.14097495236517169
-0.11463456238235818,-0.14167801630585355
-0.12254696610453872,-0.13882168729619682
-0.08658988034289472,-0.15185864374760633
-0.0854373493228546,-0.15227788521775984
-0.08433964396937463,-0.15267810284300376
-0.0950942631002918,-0.14876196150290733
-0.0931414595656265,-0.1494737237017015
-0.09122505374720483,-0.15017259671174504
-0.08923534368873583,-0.1508958509127204
-0.08728226035241422,-0.15160684477560413
-0.08337631708641947,-0.1530294459764833
-0.08133204155154795,-0.1537748213057816
-0.0775185012932705,-0.15516636592461558
-0.07553862881563185,-0.1558900342787306
-0.07956810404795797,-0.1544191408812064
-0.073619845673143,-0.15660897901542156
-0.07358186695060502,-0.15662346396762117
0.2961377255069051,-0.07559776139136487
0.2943548825574526,-0.07624659199548595
-0.07167625800246397,-0.15734604799490315
-0.06976474750070703,-0.15804981330148513
-0.06863156439089697,-0.1584678150028555
-0.004104297867713851,-0.18185253872076818
-0.0034072205814785917,-0.18210590197139892
-0.0072103392827388745,-0.18072442648269085
-0.005332482052099746,-0.18140646316771525
-0.0016533492608947864,-0.1827448810940036
-0.0015159834522372,-0.18279511427181738
-0.008815534907036128,-0.18014234823757705
0.02086044034205298,-0.17572395835145135
0.02148298558834324,-0.17549876678472123
0.016750934431121106,-0.17721466847393935
0.018788633894427854,-0.17647471302206819
0.29804084524121843,-0.0749048786267856
0.29309494107132683,-0.07670553732596883
-0.06777601491243551,-0.15878430189023343
-0.06593210237356517,-0.1595132970338638
-0.06584330574791208,-0.15955124326908277
-0.06499425015063494,-0.15994847621442743
-0.02224779195150533,-0.1752713330006745
-0.020990748745632223,-0.17572604004581982
-0.03379839216390637,-0.17111124429332597
-0.032582649998280616,-0.1715482627528215
0.012928501852411723,-0.17860470095567088
0.014985332386855604,-0.17785663573674462
0.009025345631149859,-0.18002115044857364
0.010482098007895629,-0.17949239120865734
0.010955731623440271,-0.17932080497300942
0.007083979485726144,-0.18072562597085665
0.005205553240079027,-0.18140819751134502
-6.477307406479089E-5,-0.18332802848870136
-0.01204248005894612,-0.1789754265009103
-0.011085232900811329,-0.17932197034741676
-0.009153384572403101,-0.18002024913096423
0.024652705225136278,-0.17435498483287815
0.02576458772894189,-0.17395355858220718
0.02269773244263259,-0.1750607848180554
0.2999414787817912,-0.07421063803078334
0.2922485475188893,-0.0770147940922144
0.2902439799812402,-0.07774945102115355
0.2863933781512174,-0.07915740607151785
0.2883456838344262,-0.07844430295635763
0.2844529335068281,-0.07986614537318204
0.28352798575693233,-0.08020424925309752
0.27960813151729724,-0.08165793640909434
0.280539944890315,-0.08130637499017643
-0.06406934870310689,-0.16040758926801515
-0.018918496753721963,-0.1764755740014737
-0.022828355593380627,-0.17506372554918123
-0.01688077686687672,-0.177215473641556
-0.02910533289803166,-0.17279254909320343
-0.028691504481623265,-0.17294145029070312
-0.026780964343387725,-0.17363069975114373
-0.024782340563807494,-0.17435520757532066
-0.030648458886314976,-0.17224108638919983
-0.03456255103364364,-0.1708408620325481
0.0032798233912764763,-0.1821081769615239
0.0015252686069346115,-0.18274980918828332
-0.015115978669903718,-0.17785968453640016
-0.013059236188373267,-0.17860821413667408
0.02665277289902202,-0.17363444899075964
0.028563757173490488,-0.17294642625952897
0.08532596887260016,-0.15232784365702257
0.08717073423894152,-0.1516564032226888
0.206333160089341,-0.10835268604019584
0.2043362233408083,-0.10907773685484293
0.2023754487044123,-0.10979484804259865
0.2024273900960388,-0.10977576446537823
0.30162015270161296,-0.0735983636396078
0.2824896815600687,-0.08058618117155572
0.2805545087585996,-0.08134641039516932
0.28002915725782523,-0.08153356600313605
0.27876350341001344,-0.08197478942697223
0.27928720294931136,-0.08178309265278183
-0.0625403366726049,-0.16098257577685643
-0.03662311977283893,-0.17010962665375867
-0.03741703421585336,-0.16983507888744206
-0.041006635410532885,-0.168590299276938
-0.040449691274201206,-0.16878446707486552
-0.04424244873466747,-0.16750557226722745
-0.04253114251783676,-0.1680698490668347
-0.03839842059575687,-0.16949499483799474
0.030338034845308462,-0.17230834974203602
0.09111411697800684,-0.15022377600940243
0.09290819229361005,-0.1495746523043536
0.08912363758184935,-0.15094491444312136
0.08326460530408245,-0.1530784949340205
0.08121991757275468,-0.15382273840704733
0.07542513005610657,-0.15593417841982457
0.07740541596528008,-0.15521164367135143
0.20731433871991664,-0.10799820476882133
0.2084653688454428,-0.10760223401755234
0.20988339961183514,-0.10712606787278063
0.20048473520008392,-0.11051542575490739
0.19874534647945613,-0.11117780989992598
0.34753080976573497,-0.034940021570707164
0.3476171066121008,-0.03492195046843163
0.30329725499196714,-0.07297680900817168
0.2825091842543168,-0.08063979318227799
0.28300565448494264,-0.08046361847032157
0.2961769749091504,-0.07570269407564623
0.29439282458058696,-0.07635026891361585
-0.05837375618894643,-0.16235943359507343
-0.05815646250616636,-0.16243147915081396
-0.06183707228897483,-0.16123868060318275
-0.059941535912346175,-0.1618444455114828
-0.056100114153032996,-0.16316724271553298
-0.05412525291016149,-0.16389658445905347
-0.05328791380570531,-0.16421152337894887
-0.06201442530313257,-0.16118545912907303
-0.044391781292703755,-0.1674611249277037
0.03443341304198902,-0.1708420495316063
0.03487196339220484,-0.17068676453275677
0.032453548269194,-0.1715495373829905
0.03051973902521392,-0.17224340015929673
0.07533560837347442,-0.15596711389063422
0.10270529779032585,-0.14601364211523155
0.1047542962531051,-0.14527343423523006
0.09303227872527373,-0.14952972867774783
0.07945536966993044,-0.15446538220512449
0.11260996234224428,-0.14244416619709055
0.11342820286859132,-0.1421516064337147
0.10681425921757422,-0.14452841870991562
0.10866369929024934,-0.14386034288069713
0.1224559738313814,-0.13892773992772395
0.12041076540019129,-0.13967290583991313
0.11840741829672374,-0.14038622248353955
0.1633739965025215,-0.12401838664672174
0.1613818401293723,-0.12474053413893532
0.16541624027762164,-0.12327921476435999
0.18878262468826487,-0.11482644367011816
0.1907329843785078,-0.11410796250619226
0.1870040439646986,-0.1154740542352129
0.19464452775738061,-0.11270075485276118
0.19277889427673248,-0.1133617259928261
0.17675792138869106,-0.11917627904440536
0.17509824980806662,-0.11976823825444616
0.173141076432811,-0.12046798891121398
