"Plane Section: Position[X] (m)","Plane Section: Position[Y] (m)"
3.5,0.0013613294832625481
3.27,0.0013802297183946283
3.04,0.001435034125554787
2.81,0.0015117823189887557
2.58,0.0016394887109482874
2.3499999999999996,0.001846311857172286
2.1200000000000006,0.0021164800873484336
1.8900000000000003,0.002471407789777673
1.6600000000000004,0.003006580388793905
1.4300000000000002,0.003952379550289294
1.4203421988531637,0.004000000000000007
1.2000000000000004,0.00504254870363934
1.1760000000000002,0.005535344006341798
1.1520000000000001,0.005854246605467991
1.1280000000000001,0.006308206817924029
1.104,0.006692929930204294
1.0800000000000005,0.007075643156001818
1.0560000000000005,0.007361113671491995
1.032,0.007661361497140149
1.0080000000000005,0.008020953334930438
0.9840000000000002,0.008385183333509509
0.9600000000000002,0.008829620980731995
0.9360000000000003,0.009326403863012953
0.9120000000000001,0.0098501087361383
0.8880000000000003,0.010430242272038762
0.8640000000000005,0.011078461495498838
0.8400000000000003,0.011838955028716071
0.8356455239381733,0.011999999999999861
0.8160000000000003,0.012712687187995156
0.7920000000000005,0.013667090056914787
0.7680000000000005,0.01469382341372642
0.7440000000000004,0.01586455084974918
0.7200000000000003,0.017147509874486738
0.6960000000000003,0.018517726171425587
0.6768235362620032,0.019999999999999175
0.6720000000000002,0.020394957764149686
0.6480000000000004,0.02261782354051646
0.6240000000000006,0.025131331724630765
0.6016575603668629,0.02799999999999881
0.6000000000000008,0.028236003316697032
0.5760000000000007,0.032125769167160784
0.5542466685928484,0.03599999999999836
0.5520000000000009,0.03644594364358131
0.5280000000000007,0.04095858343962422
0.5163946495098362,0.043999999999997284
0.5040000000000007,0.04751233546815431
0.49160673357939966,0.0519999999999963
0.4800000000000003,0.05858218480582191
0.47742878542789136,0.05999999999999573
0.46753519899237334,0.06799999999999531
0.4598587743746652,0.07599999999999411
0.45600000000000007,0.08399195251340802
-0.5165643382949608,0.043999999999995834
-0.5279999999999998,0.040972723296285596
-0.4920187025449228,0.05199999999999495
-0.5039999999999998,0.0476258674038615
-0.4771533141437125,0.0599999999999942
-0.48,0.05851288912606682
-0.5542633815884606,0.03599999999999652
-0.5759999999999998,0.03214591753498766
-0.5519999999999998,0.036447112049680874
-0.46493570101015136,0.06799999999999352
-0.6017182312159219,0.027999999999997513
-0.6240000000000001,0.025092529183734485
-0.6,0.02824876997486519
-0.456,0.07585926466233331
-0.648,0.022572878706296637
-0.6773682201950375,0.01999999999999812
-0.6960000000000001,0.01856740672779859
-0.6719999999999999,0.020434498968322598
-0.7200000000000001,0.0170951346822953
-0.7440000000000001,0.015786162006940302
-0.768,0.01464996252788452
-0.792,0.013634485761343396
-0.834781832509577,0.011999999999999069
-0.8400000000000003,0.01180541278463388
-0.8160000000000002,0.012688940846840044
-0.8640000000000002,0.011037161394809907
-0.8880000000000003,0.010386443538673098
-0.9120000000000001,0.009789385086913325
-0.936,0.0092560797876034
-0.9600000000000002,0.00877726113382488
-0.9840000000000001,0.008328934475536207
-1.008,0.007949184097804065
-1.032,0.007598315529952018
-1.056,0.007292041734635024
-1.08,0.007013531453019017
-1.104,0.006698410202607601
-1.1280000000000001,0.006392123985245133
-1.1520000000000001,0.005991558903064664
-1.1760000000000002,0.005714079375234915
-1.4234486462222322,0.00400000000000021
-1.43,0.003964546386723758
-1.2000000000000002,0.0051566899276682685
-1.6600000000000001,0.00301198607585036
-1.89,0.0024851582570527752
-2.12,0.0021118803542878335
-2.35,0.0018357529460226374
-2.58,0.0016485100191765967
-2.81,0.001521759857999707
-3.04,0.0014294940647447104
-3.27,0.0013779149863081576
-3.5,0.0013688084062205646
-0.3016706436823705,-0.05092260007710396
-0.3000037558662053,-0.0515293023610975
-0.35939712107849675,-0.0014440130125514738
-0.35709150582388194,-0.0044464665373367155
-0.2944235179052274,-0.053561977461341864
-0.29620552491590246,-0.052913063941904495
-0.2923169243353856,-0.05432909744726644
-0.2903108093740136,-0.05505963003508593
-0.2884113407030415,-0.055751337438208155
-0.28645833823592937,-0.056462540193202904
-0.2845172196311838,-0.05716942819618445
-0.282552332598653,-0.05788496910795418
-0.28059932647473984,-0.058596174996171896
-0.3032597644474422,-0.050342735488937994
-0.29810476815060755,-0.05222134387829207
-0.355491658642588,-0.006130382042446821
-0.35338499328675266,-0.008353339531201957
-0.3498636406718408,-0.01226018140598098
-0.351586085702633,-0.01015924713076357
-0.36009878804759754,-5.397110603003475E-4
-0.2787278366418494,-0.059277688362655914
-0.30337213018428094,-0.05030196011832466
-0.34963335153515546,-0.01248488180096458
-0.3483015781535437,-0.014213568963144801
-0.3463656823445821,-0.016167019348976748
-0.34768062038745623,-0.01482848433702107
-0.3625325540194866,0.0033669480281585166
-0.2610692797889896,-0.06570827384264934
-0.259116276178472,-0.06641948663277603
-0.257247713711975,-0.06709995327417809
-0.2766933065317395,-0.0600185656413786
-0.2747402943493386,-0.0607297548927269
-0.2729475782722389,-0.06138263783130521
-0.27083428470862797,-0.06215217382843252
-0.26883034303906445,-0.06288194373322349
-0.2649752766089796,-0.06428581970070751
-0.2630368468196119,-0.06499174943574185
-0.3035249337252256,-0.05024871403601395
-0.34572783094325055,-0.016825220097467997
-0.3444675777542456,-0.01812046338338713
-0.34255794821553776,-0.020073909354749044
-0.34377504175342066,-0.018823469411417087
-0.3633024034130421,0.004313966930602666
-0.3656272422188539,0.00727371819516349
-0.25521027241735506,-0.0678419217140967
-0.25325727099524803,-0.06855314051368697
-0.2514680520907698,-0.06920478366801999
-0.2669282800875948,-0.06357460654837906
-0.30357127922005256,-0.05023605865514366
-0.34182225264832694,-0.02082222288903751
-0.340627845214684,-0.022027358767004457
-0.3386899033791227,-0.02398080949670083
-0.3398694581935832,-0.02278914570875861
-0.36720786452742726,0.009008199059577046
-0.3692086554081012,0.011180570164087071
-0.235767685304699,-0.07492243449167693
-0.23763330477711958,-0.07424301491800868
-0.24935126722043355,-0.06997557555731038
-0.24734989443177233,-0.07070442705713548
-0.2395862898940205,-0.07353175134365827
-0.303628606930616,-0.05022129700157549
-0.33791666410496823,-0.02475824700943348
-0.3367325966438124,-0.02593426348097924
-0.334758380647263,-0.027887720307127474
-0.3359638648503212,-0.026696610224587823
-0.3711132830182048,0.013956043530452858
-0.3718807099130327,0.015087269300736408
-0.23177432292753858,-0.07637673287402788
-0.23372730999466768,-0.07566547465508118
-0.22998864968449573,-0.07702715378216082
-0.227868348607098,-0.07779924880065281
-0.22586953478965915,-0.07852714301426936
-0.2454452744709425,-0.07139804087702441
-0.2434922753767862,-0.07210926606925647
-0.2415565364608696,-0.07281422151850461
-0.3036837428880476,-0.050210270466042324
-0.33274855115279944,-0.029841183118696494
-0.33401106373896594,-0.02862392594424324
-0.3740247314696504,0.01899387969301021
-0.21441829749166608,-0.08269767867804993
-0.21615042638351156,-0.08206679860638424
-0.2239623577704003,-0.0792217193729546
-0.2220093834672596,-0.07993301264233257
-0.220076344184847,-0.08063699665614418
-0.2181034001598527,-0.08135550389038107
-0.3038202359037794,-0.050172390989737144
-0.3320582555163174,-0.03050892916293749
-0.3305575284810409,-0.03179467638267629
-0.3278597400684795,-0.03374825481674284
-0.32815251101487725,-0.03351699593945515
-0.3750184847041139,0.020193886440495412
-0.214287792027744,-0.08274524204395159
-0.3040506338105542,-0.05010299093377439
-0.3000920917576321,-0.051708825242006096
-0.30178904146984964,-0.0510975848978846
-0.33010541301047835,-0.03218994590743238
-0.32619963547169695,-0.035001439025234705
-0.3254500843869677,-0.03570178482549591
-0.3233408222422934,-0.037655264348309604
-0.32424681463951877,-0.03681141492946165
-0.37719171457084166,0.022900662010329625
-0.20850975223984816,-0.0848507893823366
-0.21029163802197753,-0.08420104788857588
-0.20638614772522232,-0.08562489296418628
-0.20439000541075153,-0.086352126983336
-0.2122445850306168,-0.08348967966736345
-0.30415785930605244,-0.05008853711503355
-0.30271565626915653,-0.05074569705559385
-0.2981988759963041,-0.05245204198303376
-0.29806743558760607,-0.05250593465504706
-0.3212056078351769,-0.039608748232815384
-0.32229399416262217,-0.03862350483765094
-0.37892384657537304,0.02547861951854069
-0.38001435255342486,0.026807386454942697
-0.2005278630491516,-0.08776052538743995
-0.202480479864618,-0.08704825044215764
-0.1985977529547495,-0.08846414655677269
-0.30407212033917086,-0.0501728428508103
-0.30356905981827514,-0.05044135602378728
-0.29822121909658716,-0.05250659393888269
-0.29846607244858636,-0.05250123482625067
-0.30136427621697426,-0.05163746000874969
-0.30024520179184566,-0.05202043743464285
-0.32034116591486095,-0.04038935771684555
-0.31863522994351146,-0.041562305253510345
-0.315749933532607,-0.04351591520129336
-0.31643534603096707,-0.04294889557467684
-0.38282883889931674,0.03296217528835461
-0.18490637393946868,-0.09345720203381036
-0.1829129217021086,-0.09418381467501658
-0.1907647527293963,-0.09132182805107308
-0.18881184138904514,-0.09203329421888166
-0.18703353412931623,-0.09268165547925267
-0.1980678618366985,-0.08865734359195179
-0.19467020437536184,-0.08989787683878207
-0.19281081063154987,-0.09057599945180851
-0.3036676726191577,-0.050511191368897784
-0.3026033123165814,-0.05109207858971885
-0.30570671863579923,-0.04952602607018481
-0.3056505355894527,-0.04958481126254759
-0.30200055005898296,-0.051410116218062483
-0.3183882679370578,-0.04174031381934788
-0.3144824858611336,-0.0445248107776401
-0.3131548161846238,-0.04546947637984412
-0.38364227595485134,0.03462049629581043
-0.1810007423502487,-0.09488065911450981
-0.18059719549251774,-0.0950276927805195
-0.19662264938836882,-0.08918513011686334
-0.30579397912361783,-0.04946997361731166
-0.30667073357722874,-0.04897441070172151
-0.3062720860000503,-0.04937688318788075
-0.31252959605705394,-0.04592440090369366
-0.38765094485422935,0.04243367012704399
-0.394983598675256,0.058059902717416734
-0.3984485019547105,0.06471854191850271
-0.4031531597224448,0.0736862759634421
-0.3990679039836011,0.06587308926055653
-0.17904795098242432,-0.09559245473180661
-0.17712045373068713,-0.09629482199346848
-0.17319041563745163,-0.09773014484916744
-0.17514270823772748,-0.09701697959560554
-0.1713339263790568,-0.09840697570845974
-0.3105766538481411,-0.04701217997929907
-0.30997062301264344,-0.0474231365620057
-0.30862374668608633,-0.048308489385837775
-0.3906387071674615,0.04862175134139725
-0.3914251176061906,0.05024680454745122
-0.4062588419930959,0.07757106440848698
-0.1692847059593942,-0.09915338749468354
-0.1672300509439459,-0.09990144083479724
-0.16143470751521083,-0.10201238556629189
-0.1634257575962606,-0.10128719740589967
-0.409332705476347,0.08149981464525288
-0.41922140084371146,0.1205639771502636
-0.42187570470805447,0.12598957903417973
-0.4294329926526913,0.13619069359222097
-0.43749781271206106,0.1431983945490251
-0.15170784301933193,-0.105554768209643
-0.14985416721975373,-0.1062300077410189
-0.15951979568226465,-0.10270974740112135
-0.15756680302862291,-0.10342099027927562
-0.1556418935496227,-0.10412201181218256
-0.1654664440844007,-0.10054374527657614
-0.4122789816441538,0.0893128099244013
-0.41497712449455293,0.10493826361110223
-0.4450082959730882,0.13619331127102183
-0.14575043892186068,-0.1077264108203242
-0.14780210875869226,-0.10697794335039368
-0.14313205799657958,-0.10868335073903841
-0.1439872041773061,-0.10837045470088984
-0.1536608262827276,-0.1048434995455023
-0.44954885218096163,0.1205690741634523
-0.14194619182535329,-0.1091200776928625
-0.13995934752132316,-0.10984878144910383
-0.450860165589803,0.08150679399902203
-0.4531337641061647,0.0780384335966457
-0.45177441316119693,0.08931944776327042
-0.45312915115944347,0.10548566830709277
-0.1380425268139806,-0.11054893507744895
-0.13609026436011357,-0.11126218311429593
-0.1341693323289979,-0.11196565141094869
-0.13023660838519907,-0.11341052614186273
-0.1283883031443366,-0.1140911448548563
-0.45846700611572894,0.07369557233988956
-0.4531293571801861,0.10425983587954395
-0.4532469145996395,0.10494469546133278
-0.12747570157523483,-0.11443102312545869
-0.13414344348839075,-0.11197514762227419
-0.13218876434029647,-0.11269698565499542
-0.4609472162374213,0.07237386744462991
-0.12634117082483698,-0.11486197644632229
-0.10690976230104338,-0.12191741778171404
-0.10749383127193651,-0.12170763253128501
-0.4687603883532902,0.06837540506707489
-0.12429422486550105,-0.11561562480061277
-0.12048687259655794,-0.11700855581962255
-0.11848958631904333,-0.11773853056019627
-0.09898472757359351,-0.12477943254902185
-0.09700162606931337,-0.12550230752297564
-0.10484989871488987,-0.12266271064335135
-0.1087611237599439,-0.12125461342311274
-0.10280152298156431,-0.12340463376790212
-0.10103428110069484,-0.12403913528438823
-0.4712519560254691,0.06588522094484862
-0.11462747154891466,-0.1191411226404773
-0.11658129305056343,-0.11843215581314251
-0.11270633069467931,-0.11983551775688339
-0.1107171194173006,-0.12055161691703527
-0.12253081098055615,-0.1162599030317781
-0.09508019333297249,-0.12620590299423534
-0.09312946735311689,-0.1269233702521058
-0.47657441698689107,0.059280624672784846
-0.09121321982252147,-0.12762267793953655
-0.08727095583409325,-0.12905837975525508
-0.08922469957953855,-0.1283491994061852
-0.08542374725448214,-0.12972311101998948
-0.08336314456237487,-0.13047585133789522
-0.08131882869947998,-0.13122111593646538
-0.07750561690871248,-0.132613562575913
-0.07552442396242176,-0.1333336049023814
-0.47753943284840095,0.05807377754555715
-0.07955469778058878,-0.1318649044102298
-0.07359848194431234,-0.13403289132634105
-0.07164642795760992,-0.13474671182262712
-0.06973688241540305,-0.1354558730859711
-0.06962425069976991,-0.13549824081786796
-0.0639619864310294,-0.1375953500813375
-0.06580480068858853,-0.13692808617276148
0.2961527398503003,-0.053034380733541414
0.29437010230169364,-0.05368374808415315
-0.48438831208477057,0.05098038764857676
-0.0677549873011341,-0.1362091377900113
-0.06189781090788114,-0.1383478136035921
-0.007195101775847677,-0.15816520390203512
-0.00531699977730931,-0.15884660681159618
-0.007429915925989988,-0.15808016784528925
0.016767519194616103,-0.15465557415557368
0.01856309027225462,-0.15400559999703653
0.2766436416104829,-0.06015079149060376
0.27502656638961676,-0.060740164297200666
0.29226344763575274,-0.05445106970244555
0.29193643491346444,-0.05457019817400469
0.2786779708943037,-0.05940936181674143
0.28054884039295264,-0.05872614288395764
0.29805583517228085,-0.05234151026906851
-0.4868641150118224,0.05026284459719818
-0.06112147242266705,-0.1386362376035656
0.01294458633525029,-0.15604423154335603
0.015001362602483678,-0.15529601703649348
0.010972352029155193,-0.156761812376207
0.007100270190007354,-0.15816575743878614
0.008451550150706599,-0.15767575494951017
0.00522160070962787,-0.15884766570645925
-0.0033916512387950105,-0.15954592645904359
-0.0016377639892115163,-0.16018545189970365
-3.042828566114159E-4,-0.16067504249052839
-0.010146840694175024,-0.15709899221950374
-0.009138913963900283,-0.15746311286933123
0.02271602586395583,-0.15250638732936736
0.022949273829349418,-0.1524223249002715
0.020878729280005018,-0.15316954860399074
0.018806162272985878,-0.1539182125991231
0.2746909727610427,-0.06086292485921772
0.2729019866208649,-0.0615260614344503
0.2999561220595237,-0.051646687400634855
0.29025796760460715,-0.05518321755123453
0.28640653705458485,-0.05658889394844012
0.2883592987965606,-0.055877044610717866
0.2844657055835937,-0.057296569851904726
0.2825012491504594,-0.05801329454478983
-0.49220119487616215,0.048703418585692985
-0.05986087515923995,-0.1391055289595497
-0.02281563400019214,-0.1525113689951959
-0.020979598868715116,-0.15317799940273868
-0.01773233157895023,-0.15434898738394343
-0.016867225947575264,-0.15466083956889057
-0.02477010099848306,-0.15180417472826918
-0.024839847655564885,-0.15177920807582929
0.009041974693731204,-0.15746219442489762
0.003295729832849948,-0.15954723871944226
0.0015410568341786052,-0.1601882818554527
7.692337603033796E-4,-0.16047042735698097
-4.889328130572359E-5,-0.16076998617598764
-0.015101042817119714,-0.15530124742979365
-0.013044602357972597,-0.15605060686515362
-0.01107130604221479,-0.15676630970453592
0.02467241219597058,-0.1518044730032982
0.026303150808322386,-0.15122074739688957
0.19287961366173664,-0.09069293424521276
0.19462847414593895,-0.09005193789409667
0.27079087509831473,-0.062301596008993404
0.26878820550759897,-0.06303486311478534
0.2685453173881932,-0.06312565588205575
0.3016349030919988,-0.051034984024867364
-0.05811160148599698,-0.13979086934636498
-0.05796237213811421,-0.13984908760571763
-0.018907257477730775,-0.15392728780470827
-0.027974849010089203,-0.15066531094103142
-0.026772567202661482,-0.15109021840242876
-0.04436025426844819,-0.1448571310414562
-0.04253020938815661,-0.14554986640759104
0.026674058683587548,-0.15108827709644415
0.02858758417191299,-0.15040723985499566
0.08328148792671415,-0.1305202186407642
0.08398222593391305,-0.13026600169324026
0.08534380926181923,-0.12977220019221883
0.08719052091892264,-0.12910610994971472
0.08234205564247243,-0.13086266270324512
0.1965819638331184,-0.08934206093840895
0.1977433836078324,-0.08892359242527581
0.19464061639675534,-0.09008531590608611
0.18488325182214377,-0.09366242035926574
0.18552685330524343,-0.09343014337075212
0.18475570446779624,-0.09371067182966616
0.2687930702693706,-0.06304823593002272
0.26931643822088147,-0.06288675266702141
0.27328469403687494,-0.06150560348611664
0.2729389959558207,-0.061627796940049995
0.3033108566159741,-0.050413165344931385
-0.05627860315759779,-0.14055589522082618
-0.04631971702495695,-0.14416365533266803
-0.03029159856484612,-0.14986326223584623
-0.02868841721745681,-0.15041555016412558
-0.031833082172541174,-0.14936434489870107
-0.03065620893573511,-0.14974494612793016
-0.033396247738040535,-0.14888874695822576
-0.03261936960285587,-0.1491316742306994
-0.04226217393556258,-0.14566012616442753
0.029720728588912153,-0.15000524461156936
0.07049954480718956,-0.13517073029404808
0.0696479075916638,-0.13548014222491248
0.06957353016932732,-0.13550759582074726
0.06571188669148006,-0.13694156479000114
0.06766022991638543,-0.13621754064841368
0.06387127073243301,-0.13761486843165888
0.10385717017337572,-0.12307751121381598
0.10273055751949679,-0.12347839368202157
0.09113366057660324,-0.1276728145025862
0.09305088293265619,-0.12697618481735967
0.08914393976703919,-0.12839603826348717
0.08123718561199517,-0.1312655215857156
0.07544216258466628,-0.1333763141563884
0.07742261812419565,-0.13265424573449575
0.16338801598333005,-0.10145223878569895
0.16139582485740608,-0.10217429077778402
0.16543369133357927,-0.10072249996336262
0.15028659887645773,-0.10624984014858287
0.15166192941549572,-0.10569734788425092
0.19023665044481194,-0.09181044764206027
0.18880550253094225,-0.0922846460439021
0.18701687582463097,-0.0929046410515423
0.1965968531314831,-0.08938299034983979
0.19830665949462814,-0.08877258251677793
0.16698613864104958,-0.1001748829843548
0.18491173398705218,-0.0937407154016115
0.2722692086354018,-0.06184944693388931
0.2708148143932857,-0.06236740308930679
0.26499014096856405,-0.06459543310930588
0.26305573184585807,-0.0653124156827263
0.26260030686772506,-0.06548600282423159
0.2591430876125824,-0.06676194260686306
0.2610957616718095,-0.06604982355948207
0.2572735947355916,-0.06743985196686429
0.23766415914629196,-0.07459658860960157
0.23961649248090156,-0.07388353293931933
0.2358029955308557,-0.07528825731408223
0.35544581103776246,-0.006370520322032792
0.3534365026462629,-0.008472132186900669
0.34992171769266756,-0.012377791526246691
0.3515388878140761,-0.010375902482147781
0.2729455446689799,-0.0616457987940434
