"Plane Section: Position[X] (m)","Plane Section: Position[Y] (m)"
3.4999999999999996,0.0019296281752396974
3.27,0.0019526285502421167
3.04,0.002028284598309731
2.8100000000000005,0.0021369026894560005
2.58,0.002312098926705962
2.3499999999999996,0.0025859861844887084
2.1200000000000006,0.0029360326513167894
1.8900000000000003,0.0034275739933323206
1.732139257760282,0.00399999999999987
1.6600000000000006,0.004268424046585175
1.4300000000000002,0.005668797557062044
1.2000000000000004,0.007099102966865447
1.1760000000000002,0.007841503110113243
1.1520000000000006,0.008461640477542776
1.1280000000000001,0.009159783535789409
1.104,0.009687953353073847
1.0800000000000005,0.01015826515298695
1.056000000000001,0.010492197428670875
1.0320000000000005,0.010891539912166353
1.0080000000000005,0.011418184358537406
0.9840000000000005,0.011931984910917386
0.9813650856626142,0.012000000000000077
0.9600000000000004,0.012540663331206858
0.9360000000000005,0.013198939877294357
0.9120000000000004,0.013882274607007136
0.8880000000000003,0.015003652842858473
0.8640000000000005,0.016678536974249876
0.8400000000000004,0.018328294419324348
0.8160000000000001,0.019533627445796356
0.8077574639533833,0.019999999999999518
0.7920000000000005,0.02089645517395486
0.7680000000000005,0.022352014769249025
0.7440000000000007,0.0238885862601477
0.7200000000000009,0.025785727028660655
0.6960000000000008,0.027937761587708665
0.6954848844666737,0.027999999999998925
0.6720000000000006,0.030627315331958588
0.6480000000000008,0.033903577132353924
0.6356714136086721,0.035999999999998325
0.6240000000000008,0.03800759995328128
0.6000000000000009,0.04245615985925294
0.5938035443684049,0.043999999999997624
0.5760000000000007,0.04816904539339654
0.561945517219989,0.051999999999997056
0.5520000000000005,0.05484105393717997
0.5365860241253204,0.05999999999999601
0.5280000000000004,0.06336032744016323
0.516877645659378,0.06799999999999548
0.5059727783462222,0.07599999999999484
0.5040000000000004,0.07863641265651264
0.5000060198600957,0.08399999999999413
0.491664837593268,0.09199999999999309
0.4862863937898021,0.09999999999999254
0.4848992590404171,0.12166666666665965
0.4879090106886244,0.14333333333332599
0.46020481045110684,0.14333333333332599
0.4559999999999983,0.13937318747184718
0.4905082619483273,0.16499999999999299
0.46807919866923153,0.16499999999999282
0.4799999999999971,0.1747766219609658
-0.5935934150948878,0.04399999999999636
-0.5999999999999996,0.04240170741270395
-0.5617149503715284,0.05199999999999549
-0.5759999999999998,0.04813564859000575
-0.5363880337141546,0.05999999999999471
-0.5519999999999998,0.05475845750883352
-0.5172950290346271,0.06799999999999387
-0.5279999999999998,0.06339223035309094
-0.6353743323429604,0.035999999999996986
-0.648,0.033873141544963264
-0.6240000000000001,0.03794582705991985
-0.5068290906223238,0.07599999999999318
-0.4989184508821337,0.08399999999999244
-0.5040000000000001,0.07888878239036747
-0.6951077254277005,0.02799999999999788
-0.696,0.02789071554402744
-0.6719999999999999,0.030623816613054647
-0.4899018584022805,0.09199999999999167
-0.7200000000000001,0.02566438823960983
-0.4852802324434288,0.09999999999999098
-0.744,0.023701158538024656
-0.48421234966834953,0.12166666666665757
-0.4706764991653658,0.14333333333332465
-0.4560000000000032,0.12702246118226115
-0.7679999999999999,0.022076751001233623
-0.48555712146588376,0.1433333333333248
-0.47266916609245246,0.16499999999999132
-0.8037380714700547,0.019999999999998696
-0.816,0.019281654393182378
-0.7919999999999998,0.02069708149009858
-0.4864126495282313,0.16499999999999146
-0.48000000000000875,0.17286068280576802
-0.8400000000000001,0.018121006713183792
-0.8640000000000001,0.01688080797029194
-0.8880000000000002,0.015372693172511179
-0.9120000000000001,0.014088936502230209
-0.9360000000000002,0.013208386483529741
-0.9781506228941363,0.011999999999999587
-0.9840000000000002,0.011835297815281667
-0.9600000000000002,0.012504889326858185
-1.008,0.011231081479298582
-1.032,0.010686520236308603
-1.0560000000000003,0.01025279368632066
-1.0800000000000003,0.009897869666966751
-1.1040000000000003,0.009468953178908435
-1.1280000000000001,0.009126987539520275
-1.1520000000000001,0.008681657108522431
-1.1760000000000002,0.008130705172989323
-1.2000000000000002,0.007269695317266901
-1.4300000000000002,0.005708402610830895
-1.7341351437562411,0.00400000000000009
-1.8900000000000001,0.003444676056931631
-1.6600000000000001,0.0042707586452118956
-2.12,0.0029376807227181768
-2.35,0.002573456235571596
-2.58,0.002323928576217286
-2.81,0.002150506456698129
-3.04,0.002023485958840891
-3.27,0.0019522659841793078
-3.5,0.0019397056270305617
-0.30168732019131017,-0.07569145881496914
-0.3000204687902835,-0.07629821685570755
-0.35160207208503974,-0.03214844385761305
-0.35076631242430656,-0.033122403213677674
-0.34675320253680053,-0.037029351801527985
-0.3476965265387383,-0.036195933370528795
-0.35550753773940913,-0.0276419680155185
-0.3540273198576748,-0.029215585538050738
-0.3576672636359489,-0.025308701904116923
-0.2944402456823769,-0.0783309288128497
-0.29622224910611183,-0.07768200560087242
-0.29233366163391045,-0.07909807489840684
-0.2903275599490779,-0.07982864394414221
-0.2884280973707921,-0.08052036808020802
-0.2864750967648744,-0.08123157594646371
-0.2845339748219106,-0.08193845478271129
-0.2825690860170744,-0.08265399082774974
-0.2806160828037206,-0.08336520470847435
-0.3033884253843825,-0.07507059323211782
-0.29812148578891506,-0.07699026869793256
-0.3457437235068618,-0.03804583905392169
-0.34490367692373003,-0.03898279876266452
-0.3431258783162584,-0.040936233238874346
-0.3437909679724346,-0.04016862184523466
-0.359413048934476,-0.023397127516518797
-0.2787445967354481,-0.08404672841282218
-0.3034295517491389,-0.07505567079285463
-0.34183826192359107,-0.04257570372719284
-0.34159566051881063,-0.04288962462075056
-0.33983555789462955,-0.044843056016771354
-0.3398855222070918,-0.044789361901962164
-0.3612349655453415,-0.021401830844724842
-0.2610860954691743,-0.09047746653342462
-0.25913309358071207,-0.09118868405231162
-0.2572645350404502,-0.09186916147505901
-0.2767100731654552,-0.08478762365105638
-0.2747570706298701,-0.08549883939291442
-0.2729643630603933,-0.08615174569267589
-0.27085108015777776,-0.08692131096560407
-0.26884714518199354,-0.08765109925133521
-0.2649920965663647,-0.08905502413714214
-0.26305366511267186,-0.08976094930156792
-0.3035307067846145,-0.07502163930096711
-0.3381534079582038,-0.04679647384421145
-0.36331854425523724,-0.019061087783149574
-0.3647406453846707,-0.017494970581000843
-0.2552270994442037,-0.0926111455625591
-0.2532741004019135,-0.0933223708970046
-0.2514848848645488,-0.09397402329617795
-0.26694508991604715,-0.08834378317085646
-0.30357344179631174,-0.07501034339019938
-0.33793278822063294,-0.04703593967850833
-0.336425717951676,-0.04874989959843761
-0.33460709078600115,-0.05070334118133259
-0.3359800435653327,-0.04922122403047319
-0.36722400643626985,-0.014534657298368439
-0.36805653128648963,-0.013588143353130511
-0.2357845711888396,-0.09969181995798701
-0.23765019274524096,-0.0990124061073753
-0.24936811059935865,-0.09474484430815212
-0.24736674671674483,-0.09547372026350548
-0.23960318359432636,-0.09830115827448335
-0.30363030154764786,-0.07499580413386503
-0.33272716925402124,-0.05265679343323519
-0.334027280629587,-0.051301485594158557
-0.37059280806203043,-0.009681451825347465
-0.23179123998562273,-0.10114620394269089
-0.23374421375482263,-0.10043490920860015
-0.23000555960093055,-0.10179660523757175
-0.22788525806430027,-0.10256869899570481
-0.2258864563668369,-0.10329662649068361
-0.2454621394092669,-0.09616736882904572
-0.2435091552703094,-0.09687863508788708
-0.2415734256735822,-0.09758361612705681
-0.3036942278378453,-0.07498152697641924
-0.3320745078299062,-0.05332507794968216
-0.3308246461259748,-0.05461024961920985
-0.3711292833971616,-0.0089441204980373
-0.37337333866952693,-0.005774717782323589
-0.22397930889868217,-0.10399128399555908
-0.222026339419937,-0.10470259051118969
-0.22009328651848553,-0.1054065371265829
-0.21741126961731752,-0.10638333038897092
-0.2181203501114796,-0.10612506527920831
-0.3038314786186767,-0.07494340002367729
-0.33012173079773965,-0.0553243543280665
-0.32890356068323595,-0.05656370903617035
-0.3269573886930145,-0.05851717281973646
-0.3281689501881024,-0.05730307778812517
-0.3750346706723129,-0.00398734903092585
-0.2143048754600183,-0.1075151699655021
-0.21616746155712194,-0.1068365940124154
-0.30408315041985107,-0.07486567110264908
-0.32621616501190265,-0.059255565906027916
-0.3249826093845722,-0.060470641582743415
-0.3229593159838494,-0.06242411879019137
-0.32426337433468844,-0.0611764501883655
-0.37703533925483584,-0.0018678303091464153
-0.21030875636657123,-0.1089710716699428
-0.20852690228100335,-0.10962090018826919
-0.20640319307328675,-0.1103947162713649
-0.20440712150669907,-0.11112214455837623
-0.21226162207689248,-0.10825948020724452
-0.30431266940273416,-0.07480110952291073
-0.3223105748573894,-0.06304677724920947
-0.3203576786207931,-0.06436121344297685
-0.320333645327454,-0.06437770084844337
-0.37894005384200796,9.93008688439494E-4
-0.3798389395050549,0.002038907749414876
-0.20061717195882278,-0.11250467357141691
-0.20249775762250521,-0.11181871192704093
-0.30476284533778625,-0.07465779491611488
-0.3055422506609698,-0.07437576427396458
-0.30555564098099847,-0.07437117528417986
-0.3184047747510311,-0.06563179643191255
-0.31762886998857387,-0.06633129667579515
-0.3154580667838963,-0.06828479955905098
-0.3164519538931054,-0.06737928986174403
-0.3828454885543932,0.005677249028829493
-0.3830952788515769,0.005945724612510176
-0.18882924445533059,-0.11680409967724013
-0.19078205122095582,-0.11609234635298782
-0.18705109727249594,-0.11745290049455219
-0.1863433401429938,-0.1177109586046621
-0.20054514260270812,-0.11253099178341634
-0.19861527118639477,-0.11323526834814465
-0.19468759287004467,-0.11466864231680216
-0.19282809679027713,-0.11534648389987445
-0.30564066502346493,-0.0742891964048104
-0.3144991368593885,-0.06914875374367346
-0.31285228142835014,-0.07023837815603308
-0.3867510311651726,0.00974160340914837
-0.38686953395619567,0.009852631624892222
-0.184924163348857,-0.1182290683588589
-0.18293084119278258,-0.1189560381909638
-0.19664023584682008,-0.1139564392300133
-0.30576688467391294,-0.07421162346722468
-0.30668742281700123,-0.0736648305191773
-0.306202214616803,-0.0741457857370629
-0.31254623786295355,-0.0704473344435915
-0.39065600450158033,0.017076490080402622
-0.17713882567667094,-0.12106828792085958
-0.17906587778993185,-0.12036469832065347
-0.1732078372445803,-0.12250100108728097
-0.1751608355200609,-0.1217897736472057
-0.1713510572274054,-0.12317703351327307
-0.18101869054187336,-0.11965296143478724
-0.3105933039586327,-0.07154536620093485
-0.30973022048355786,-0.0721920466168156
-0.30864043204701264,-0.0729995515818271
-0.3910192804392244,0.017665854055107184
-0.39522844725591477,0.025479086828122388
-0.39846635716646284,0.029413802551473973
-0.4016555104790782,0.03329270565192902
-0.406277067949433,0.03969369455843699
-0.41081463090324655,0.04891930014056842
-0.4073833740409598,0.0411062027718651
-0.16930174015372804,-0.12392317988590583
-0.16724716696386954,-0.12467145792120557
-0.16145186075841209,-0.12678250485938775
-0.163442952925219,-0.12605743226803304
-0.4132750385242839,0.0567322285216105
-0.4518971278283745,0.12705145221273278
-0.4531360417494567,0.13176972838475015
-0.4640648240242152,0.15830357061582323
-0.4687552543495935,0.16502021888025575
-0.4560388651250852,0.1426771733671892
-0.15172506467878072,-0.1303250753696244
-0.1498717750764258,-0.13100137539147838
-0.15953690829529232,-0.12747975512383516
-0.15758383897511094,-0.1281907874758868
-0.15565886085298225,-0.12889162051480377
-0.16548365972233053,-0.12531403591201076
-0.4140863068780462,0.058429521739546623
-0.41758013888287543,0.0645454779929831
-0.4313378105903607,0.09579787314989607
-0.4375159160313057,0.10376518276720259
-0.4435135791489663,0.1114249927214126
-0.14732163353655314,-0.1319337226838329
-0.14782039530501256,-0.1317511746651703
-0.1536778572395206,-0.12961328303892128
-0.42189563040440203,0.0766793272019965
-0.4239367805611979,0.08017158467743811
-0.1457705949778737,-0.13250477576830788
-0.1419661331602502,-0.13389785288219436
-0.14400803382568012,-0.133150669294895
-0.13997876687008132,-0.13462512318462747
-0.13948708345307528,-0.13480530804443538
-0.13806396032341722,-0.13533080764329486
-0.1361137897002013,-0.13604979978833787
-0.13419472430982102,-0.13675839379709237
-0.13026745448864135,-0.13821824528501978
-0.1284185587481506,-0.13889724236789266
-0.12636437812418586,-0.13964871896828018
-0.133824642004514,-0.13689513126424607
-0.13221852657061886,-0.13750172853674708
-0.09899985037048534,-0.14954397584488954
-0.09701795627681811,-0.15027016634482365
-0.10692504287294385,-0.14668239393109272
-0.10877378254822992,-0.14601238999318536
-0.10104791542549305,-0.1487995911506682
-0.1127135435570519,-0.14457833957875096
-0.11435951678899961,-0.1439836946652345
-0.11072685495419231,-0.14530136611466263
-0.12431367657697737,-0.14039205438025587
-0.12050033744251683,-0.14176854542029255
-0.11850058610807113,-0.14249175109569115
-0.09509555788808066,-0.15097111008035424
-0.09409081855748361,-0.15133714630992473
-0.10486288337912086,-0.1474213823327366
-0.10259380225896171,-0.14824063712243493
-0.10281365313815759,-0.14816095905403395
-0.11659146060141731,-0.14318309105240698
-0.1146348437870387,-0.14388438202070938
-0.12254750110256571,-0.14102874927956177
-0.08900921279825569,-0.1531877013001574
-0.08923659590549561,-0.1531048825895218
-0.08696424928120187,-0.1539324102800806
-0.08543868845279937,-0.15448715556139975
-0.0833775736351086,-0.15523848954897512
-0.08321735244082862,-0.15529690783742242
-0.09314277717561771,-0.1516829349463242
-0.08927489437076022,-0.15309094874139814
-0.09122626148910998,-0.15238150625593028
-0.08728366435287287,-0.153816293249905
-0.0813334143899556,-0.15598418420515947
-0.07752000390667509,-0.15737608517417623
-0.07554065863415545,-0.15810120121807586
-0.07956950036647141,-0.15662856824923135
-0.07392573992764401,-0.1587083567287704
0.29613631715801186,-0.07780769203974022
0.29435355340760133,-0.078456734621085
-0.07362342847134204,-0.1588244103440544
-0.07167850930709986,-0.15955782294315746
-0.06976674655101824,-0.16026089553250364
-0.069390252998758,-0.1604016533011722
-0.004216898899451929,-0.18402176306453774
-0.0034086909084229734,-0.18431552031633602
-0.007211781522232272,-0.1829339769149541
-0.005333938486498928,-0.18361604874105653
-0.0016548238272253847,-0.18495447605393656
-0.0014513360639707954,-0.1850288908011306
-0.00897116898030791,-0.18229589390081352
0.020858801232050507,-0.17793324910733782
0.021750428462119453,-0.17761066196159495
0.016749425255725408,-0.17942431639931938
0.018787078775167824,-0.17868423465443917
0.298039542177807,-0.07711508241290446
0.29351376882815117,-0.07876279236694506
-0.06778197033813695,-0.16100624824932963
-0.06675064992725274,-0.16142534096019323
-0.022514725966461004,-0.17738432561578965
-0.02099187343517875,-0.17793472161936236
-0.034383617519752066,-0.17310830733757776
-0.032583200027528736,-0.17375536614764092
0.012926971600049207,-0.1808142909086417
0.01498382209047748,-0.1800662805755476
0.009023806703564105,-0.18223071549140363
0.0106973488583548,-0.18162325504454285
0.01095414520246719,-0.1815302400591405
0.007082464995969163,-0.18293525723748186
0.005204053607831389,-0.18361786950879416
-6.626592299178728E-5,-0.18553752747404603
-0.012229637083121043,-0.18111748743279832
-0.011086581489219025,-0.18153126636068934
-0.009154731080695706,-0.18222953749347254
0.02465100661985673,-0.17656411207879588
0.026033778949863487,-0.1760648245235371
0.02269599605549402,-0.1772698081823125
0.29994039134607364,-0.07642127986459665
0.292247722619212,-0.079226321937807
0.29024323392668133,-0.07996119662615665
0.28639250655205,-0.08136880679173851
0.28834479936262547,-0.08065566825926207
0.28445196414278584,-0.0820772773540122
0.28422558603858106,-0.08216007919946691
0.2803098969287435,-0.0836122449786219
0.2805410673564635,-0.08352325740576212
-0.06595377337929752,-0.16180918293183105
-0.06587723338579264,-0.16185000080221235
-0.06440423144626999,-0.16251394384370813
-0.01891967290878577,-0.1786843969181325
-0.022829353091263507,-0.1772720578292896
-0.01688217865656554,-0.17942491615641276
-0.029476250375612342,-0.17486766348425464
-0.02869246440821437,-0.17514967935098344
-0.02678219079337158,-0.17583966070696042
-0.024783509698285425,-0.17656401115607961
-0.03064926470384467,-0.17444889222037543
-0.034562302129397426,-0.17304577151172937
0.00327833713015458,-0.18431789082937203
0.0015237832507169716,-0.18495954084645588
-0.015117399199365472,-0.18006917850161014
-0.013060569446036828,-0.18081746839136587
0.02665092362430449,-0.17584316207853237
0.02856191823834394,-0.17515516779786258
0.0853246219480393,-0.1545379378310593
0.08716928315146902,-0.15386621105502737
0.20633151330590543,-0.11056195608174207
0.2043351512454376,-0.11128858668904337
0.3016191266159314,-0.07580895983180076
0.28248925356179394,-0.08279880137114862
0.28055067297724695,-0.08354966293092245
0.28002525579121135,-0.08373663795715616
0.27952200574495795,-0.0839085474886191
0.28004571081318597,-0.08371686590870568
-0.06312987431659635,-0.1629780231244295
-0.06200257170739132,-0.1633585009304233
-0.06408522545985644,-0.1626567784544906
-0.036621679488296095,-0.17231126454103185
-0.03822653491692174,-0.1717504624656445
-0.04231843501349,-0.17032275633898702
-0.04044484594878346,-0.1709767544916198
-0.0443768992904995,-0.16962585129941718
-0.04252307505621488,-0.1702532883632671
-0.03839503654802422,-0.17169129504864233
0.03051761762267055,-0.17445136523702942
0.0911121109421402,-0.15243205831465223
0.0930303039497767,-0.15173809693101434
0.08912209654878128,-0.15315447501395174
0.0832630447968434,-0.1552880019795307
0.08121837933324903,-0.15603230666748727
0.07608032691684798,-0.15790547415673886
0.07740396424156026,-0.15742144976569647
0.19463153181348572,-0.11487882680665314
0.19277273224414898,-0.11555858406875276
0.17764844946090957,-0.12106175809435984
0.17707704038568278,-0.1212627485663155
0.2080657128484798,-0.10993435264827903
0.20845807352690376,-0.10979597652475433
0.21025134126115347,-0.10917752250762826
0.20331582201361126,-0.11166223528714089
0.20243024156798717,-0.11199740006681723
0.20049213629749624,-0.11274956824878199
0.2003866117330595,-0.11279022571697629
0.21105101886164368,-0.10891080099504574
0.35101906440004693,-0.03324455716174634
0.3515228497954745,-0.03265843285427577
0.34679966932048817,-0.03715007278588001
0.3476159200487974,-0.03656329853418762
0.30329412431866554,-0.07518569579118294
0.28457160082294947,-0.08210356659647255
0.28475259454964125,-0.08202108261195061
0.2844681952552645,-0.08212189612372976
0.2825075845986793,-0.08284919276870557
0.29617423129239395,-0.0779090657111012
0.2943946729238599,-0.07856909082869011
-0.05908853831024463,-0.16430927751179591
-0.05815367548496361,-0.16462941828517258
-0.059929885584617204,-0.16401804585259488
-0.05610263641777147,-0.1653797611464321
-0.05464554634532928,-0.16592727019792686
-0.045465115585952204,-0.1692704834968705
0.03826609489126685,-0.17170126416316653
0.03840225988714324,-0.1716533573608216
0.03443056231987095,-0.17304800982040291
0.03542813028696514,-0.17269365081813404
0.030805834945801015,-0.17434737433497963
0.03245131087335581,-0.17375718363598686
0.10270324617794838,-0.1482217991569152
0.10475195308363547,-0.14748078981620458
0.09445286742086413,-0.1512220376584463
0.0794538492526915,-0.1566749994612394
0.07542461270458242,-0.1581465530798757
0.11260601570414563,-0.14464711400641458
0.11417885160982488,-0.14408786968506943
0.10681204749670575,-0.14673613565531468
0.1086617501086348,-0.14606878155564162
0.12245473210872658,-0.14113812370843537
0.12040826915016971,-0.1418798409720211
0.11840008108298272,-0.14257984991154438
0.163373147307312,-0.1262298493781826
