"Plane Section: Position[X] (m)","Plane Section: Position[Y] (m)"
3.5,7.249084834781754E-4
3.2700000000000005,7.354023072060336E-4
3.04,7.643498060175759E-4
2.8100000000000005,8.057208097258303E-4
2.58,8.736358577036046E-4
2.35,9.865499384363375E-4
2.1200000000000006,0.001136522647732497
1.8900000000000001,0.0013420752898680344
1.6600000000000006,0.0016608187419591836
1.4300000000000002,0.0021315492366653535
1.2000000000000004,0.0026315745808934924
1.1760000000000002,0.0029068189767146447
1.1520000000000001,0.003012294078134807
1.128,0.0031273748502396864
1.104,0.0032590188905798137
1.0800000000000005,0.0034121238061919
1.056,0.0035732019235285408
1.032,0.0037617164231716956
1.008,0.003986550831651588
1.0065939147990326,0.003999999999999858
0.984,0.004214070714254043
0.9600000000000001,0.004454678740911447
0.9359999999999998,0.004716427404755315
0.9120000000000001,0.004986343513255963
0.8879999999999999,0.005274480922877996
0.8640000000000001,0.005584809310593755
0.84,0.005926561804498156
0.8160000000000001,0.00629664533257227
0.7920000000000003,0.006729342290946129
0.7680000000000005,0.007203511552714939
0.7440000000000004,0.0077380501642245365
0.7200000000000003,0.008331247683654645
0.6960000000000004,0.008965180842011462
0.6720000000000003,0.009805953047650431
0.648,0.010736065645881525
0.6240000000000001,0.011820612873879791
0.6211347557280812,0.011999999999999948
0.6000000000000001,0.013276382595000063
0.5760000000000002,0.015117481497538249
0.5520000000000003,0.01738222081950446
0.5280000000000002,0.019601722075982313
0.5228560520559509,0.019999999999999227
0.5040000000000004,0.02140127861278409
0.4800000000000004,0.02447052583912794
0.4560000000000003,0.027616665725546385
-0.48,0.024500142085997198
-0.45599999999999985,0.02757340218650899
-0.5234289743291556,0.01999999999999802
-0.5279999999999998,0.01964562032257343
-0.504,0.021434889136759304
-0.552,0.017424232293211998
-0.5760000000000002,0.015189108413297374
-0.6211674413773975,0.011999999999998404
-0.6240000000000003,0.011820221840832819
-0.6000000000000003,0.013295640131160295
-0.6480000000000004,0.010704979777728642
-0.6720000000000004,0.009812865787986423
-0.6960000000000003,0.008987859153506634
-0.7200000000000002,0.00829280617228782
-0.7440000000000002,0.0077047400181049965
-0.768,0.007176971771048266
-0.792,0.006702853794844057
-0.8160000000000002,0.006274071450469557
-0.8400000000000002,0.005898754751461885
-0.8640000000000001,0.0055601744134913846
-0.888,0.00524663847217031
-0.9120000000000001,0.004949468610736481
-0.9360000000000002,0.004690344271390062
-0.96,0.004440576738626304
-1.0059224678724017,0.003999999999999789
-1.008,0.003981007823041857
-0.984,0.004198749407943304
-1.032,0.0037729401622754164
-1.056,0.003587947610273089
-1.0799999999999996,0.003427509225023059
-1.1039999999999999,0.0032820989698641905
-1.1280000000000001,0.003152213860465958
-1.1520000000000001,0.0030309719957176007
-1.1760000000000002,0.0029212480046946583
-1.2000000000000002,0.0026498138216519444
-1.43,0.00214120523840451
-1.66,0.0016641281143064297
-1.89,0.0013468770336144244
-2.12,0.001131913387213327
-2.3499999999999996,9.81489061827225E-4
-2.58,8.782213591898515E-4
-2.81,8.10109916557014E-4
-3.04,7.614074368066211E-4
-3.27,7.336985121619163E-4
-3.5,7.282474957693544E-4
-0.3016518851422469,-0.015835833792492027
-0.29998498673079665,-0.016442500950767686
-0.3515681913680565,0.028195444510723863
-0.35047054834256136,0.02673137375848226
-0.3475125691862072,0.02282472186317865
-0.34766267097422743,0.022824742255409883
-0.3549298400870752,0.0345444796521835
-0.3531350669329133,0.030637985785403894
-0.29440467131407005,-0.01847497560178863
-0.29618669943443343,-0.01782612006414259
-0.2922980490520843,-0.01924201681722749
-0.2902919102693285,-0.01997248397862974
-0.2883924177096844,-0.020664125778396138
-0.2864393884076068,-0.021375254838830137
-0.2844982436663723,-0.02208207106667096
-0.28253332697912326,-0.022797530540949087
-0.28058029550029634,-0.023508666799535113
-0.30335300513470076,-0.015214995639532224
-0.2980859648887845,-0.017134460172105456
-0.3460121131561046,0.020871392999175818
-0.35547346866009777,0.03535555438731002
-0.3574309763809144,0.0384510694826425
-0.2787087890518341,-0.024190134536585344
-0.30339261541575013,-0.015200592340199723
-0.34570986189227515,0.02049922088442439
-0.3444081688908408,0.018918050075677192
-0.3428634132548984,0.016964715193311518
-0.3437570497019908,0.01819657910333808
-0.3593788981956588,0.04139504023705243
-0.26105001666323263,-0.03062012811885795
-0.25909699540097797,-0.03133129243539945
-0.25722841100467225,-0.03201169885449254
-0.2766742438673573,-0.02493097041798204
-0.2747212135800721,-0.025642109948918582
-0.2729284795708572,-0.026294943647231818
-0.270815156593911,-0.027064398865711242
-0.26881118731885467,-0.027794092961499355
-0.2649560704796041,-0.029197830496813796
-0.26301760807871133,-0.029903670676064722
-0.30353427173717246,-0.015151682163726317
-0.34180427296251226,0.015632993390243793
-0.3412632683316667,0.015011372785975044
-0.3394949619755029,0.013058007532897365
-0.3398514355810667,0.013515777054132379
-0.36006009763140795,0.042357676700625596
-0.25519094043527135,-0.0327535869010067
-0.2532379184984278,-0.03346474936491132
-0.25144868808865634,-0.03411636093204621
-0.26690910193533185,-0.028486694174782227
-0.3035885312465012,-0.015136038655929761
-0.337898604827753,0.011349772830454697
-0.3376566266635122,0.011104632765964998
-0.33561323859205927,0.009151230141380617
-0.3359457340866036,0.009478108382437025
-0.3612974459774242,0.04626409483788903
-0.23574810357552278,-0.039833413851017976
-0.2376137360926585,-0.039154030096185455
-0.24933187391849165,-0.034887072353059295
-0.2473304695230637,-0.035615837056622635
-0.23956676130090557,-0.03844287661659336
-0.30366334742503426,-0.015114637005815723
-0.3339682168633066,0.007197881637264552
-0.3339929151459743,0.007225154110348667
-0.36243152241373816,0.05017049894503847
-0.23175468288537027,-0.041287552100365346
-0.23370770966646673,-0.04057640294031689
-0.22996898773625843,-0.04193791286357193
-0.22784866876304039,-0.04270995873479844
-0.22584983990504792,-0.04343781164596447
-0.24542582493792353,-0.036309383255764056
-0.24347280509894076,-0.03702055148105039
-0.24153704421766048,-0.037725446612737024
-0.30379883245945183,-0.015073008529627032
-0.332481261138803,0.005244554607358502
-0.3632837096610404,0.051983976246998714
-0.36444735529970596,0.054077022844109396
-0.21426788957215465,-0.047655340681649117
-0.21613056237539305,-0.046977002817127925
-0.22394262336322882,-0.044132279471374186
-0.22198960684787838,-0.0448434568244025
-0.22005656276894703,-0.04554742767275831
-0.21808359075270933,-0.0462658580408009
-0.30404848797126777,-0.01499073663725166
-0.33204011100298597,0.004863278307716959
-0.3302862899442568,0.0032911313892947935
-0.32790013946071644,0.0013376821983740004
-0.3281343102686469,0.0015560879357409895
-0.4170271624445317,0.040412291001074824
-0.41601944853735134,0.04194842726340148
-0.41555603278712705,0.042365216157282407
-0.4140660440277927,0.044005690116294086
-0.4132950949372559,0.04431803401329951
-0.3671888127142546,0.0604266118098023
-0.2084894156907921,-0.0497596959963627
-0.21027153818621963,-0.04911060451423851
-0.2122245590568826,-0.04839943912226931
-0.3042597736009256,-0.014926629582230672
-0.33008721864569157,0.0031507245418958343
-0.3261814052706442,-6.342089337024917E-5
-0.32553750706606727,-6.157637974723944E-4
-0.3232067353275944,-0.0025692054648551927
-0.32422850453840457,-0.0017143288690907718
-0.41848088705045866,0.038459363480284385
-0.41797295337280266,0.039152692055511196
-0.4101596436648082,0.04511220673889277
-0.4085420566495931,0.04627051330247425
-0.41211280961919156,0.04481088506164319
-0.36792922035276887,0.06188999594851273
-0.20759000275730471,-0.050087237540874324
-0.20436957343061754,-0.05126077161634738
-0.20636562324696142,-0.05053328353675568
-0.30443112679223394,-0.014882801256069993
-0.3207546325643198,-0.004522663615787691
-0.3222756014536924,-0.0033479209498541527
-0.4205657797366395,0.036506521707473275
-0.41992636360379887,0.037053315222901326
-0.4089439354326398,0.04767681796897895
-0.40854595328083054,0.05017676386789664
-0.3723584076004686,0.06970309775233535
-0.2024598999975429,-0.05195648900022453
-0.20050713662944514,-0.052668361575701074
-0.1985771898751868,-0.053372431398304075
-0.19375441830005308,-0.05513058799290117
-0.19464899808686223,-0.05480439553853446
-0.3049489371659428,-0.014708935579540032
-0.30547034655146554,-0.014526660807679007
-0.30551086880971867,-0.014515025127523073
-0.32032268325926977,-0.004870294424895716
-0.3183697449812142,-0.00624483763863691
-0.3180717058855141,-0.006476153125544043
-0.31538241815393475,-0.008429643499482463
-0.3164168142630983,-0.007675027572268163
-0.42187968093537404,0.03563774631593475
-0.40761133975349956,0.05408288693107086
-0.3959729069143257,0.06189380585204261
-0.3984390172097938,0.05892349706025275
-0.37499962662669467,0.07283798458926787
-0.18488550452992744,-0.0583646462548588
-0.1828920638263501,-0.05909129063448848
-0.1907438282636956,-0.056229120885585925
-0.18879119404966688,-0.056941348159005936
-0.18701289862736145,-0.05758974199984066
-0.1966017911548617,-0.054092604528390084
-0.19278968387969572,-0.05548273667623024
-0.3056507259632004,-0.014436810653268578
-0.3144638830510939,-0.009101582142447783
-0.31251092188542906,-0.010307655768644891
-0.4230493912975831,0.03455373410302259
-0.40716758562206107,0.05798907668044783
-0.402345291647734,0.05874388122214226
-0.4062515220046523,0.058888734005693125
-0.3958759919728967,0.06580004272160828
-0.37901830033028894,0.07751650261090932
-0.1770996660861614,-0.06120249098267429
-0.17902708322268795,-0.06049990365649407
-0.17316847135533428,-0.0626346377197638
-0.1751213923626688,-0.061923198071508284
-0.1730870910661858,-0.06266428099207569
-0.18097985672546935,-0.0597880589140657
-0.3124019393816694,-0.010383173433473615
-0.30576773253384804,-0.01437882747157689
-0.3066520003358514,-0.013645781703969294
-0.30618947835366206,-0.014290267469723597
-0.42773943824959476,0.03282403098104825
-0.42578627048307777,0.03313869128779082
-0.4238330290081876,0.03399589932579543
-0.39677463513094924,0.06970641484373093
-0.3828109679233323,0.0813674224788838
-0.38764514739819433,0.08533017469206614
-0.3906226067458527,0.08770685149224769
-0.17131184093906504,-0.06331108098604053
-0.310557963157051,-0.011531669617188881
-0.3092454967218867,-0.012336727273217121
-0.30860500265501917,-0.01274262805535743
-0.42965964014711017,0.032601507127071896
-0.3984372735063614,0.07175843426368009
-0.3984344760557715,0.09234972401395408
-0.39976289327271874,0.09314432103282266
-0.4062464241332754,0.0964128093376112
-0.1692632175147264,-0.0640591323283333
-0.16720931424215454,-0.06480925018040055
-0.16141420322107203,-0.0669208332312291
-0.16340517397376644,-0.0661954271956906
-0.42969259399148535,0.032597880774889926
-0.4015553187241847,0.07751956440044001
-0.41405875714971196,0.09764246156322208
-0.15168750770887462,-0.07046367999434122
-0.14983372890396252,-0.07113863666150638
-0.1594993822011033,-0.06761844447265208
-0.1575464269609673,-0.06832979010681298
-0.1556216193655684,-0.06903109145144243
-0.16544588740509802,-0.0654520490297784
-0.4368008125033733,0.030649352280274586
-0.43555216502583494,0.03115532203481553
-0.43359894699672563,0.03183995190124485
-0.43164575425831325,0.03233842369206413
-0.4062483663781964,0.08211646103517053
-0.41090385877428304,0.08533333452792857
-0.41405999162684437,0.08855580372104738
-0.42187163971893965,0.09482700177163865
-0.1457293771659612,-0.07263332775942516
-0.14778146197381742,-0.07188599981023402
-0.1419226900982083,-0.07402029444021484
-0.1439655989638584,-0.07327587930837585
-0.15364058463951255,-0.06975266856080488
-0.13993444560613785,-0.07474515329795763
-0.43750539684065287,0.030369219217293648
-0.4394585939440735,0.029838617791254934
-0.4218719549581866,0.09250660951800499
-0.42421864658455477,0.09314764349403296
-0.13801757643397236,-0.07544517401746012
-0.13722959567683765,-0.07573319081237928
-0.13020930438646955,-0.0783003029920771
-0.12835935667457415,-0.07897641162983651
-0.4414117521379255,0.02959441933425922
-0.1263044520800707,-0.07972590034063856
-0.13606600530986462,-0.07616032087212626
-0.13414481428206315,-0.07686307823362125
-0.13216155916565164,-0.07758703367053446
-0.44336490741848567,0.02937166482283839
-0.1242552006050551,-0.08047321775091301
-0.4453180440128314,0.029286454600421497
-0.12254839505943227,-0.08109746733203141
-0.1204501199121468,-0.08187238781249266
-0.11845349441630895,-0.08260417750551982
-0.44727117490522206,0.029243214925785067
-0.11554528867924499,-0.08367521354700469
-0.11654766809724731,-0.08330457767013726
-0.12249205815486316,-0.08111824161748785
-0.09897167681127422,-0.0897083523026697
-0.09698595330764168,-0.09042402650266343
-0.10690126881334253,-0.0868588553608491
-0.10874702654991153,-0.08618066241228436
-0.09925027000833415,-0.08960862247885389
-0.4492243399517293,0.028948575905911267
-0.11459942123543382,-0.08402885400076285
-0.11268063028298347,-0.08472970223326426
-0.11069601704709016,-0.08545842833963326
-0.09506194233207567,-0.09112054166013116
-0.09310707261892412,-0.09182662954570987
-0.10484236283422596,-0.08760677769059398
-0.10279398005514001,-0.08834868111344515
-0.10102597624492576,-0.08898108933246544
-0.4505438224582678,0.028698094332833643
-0.4511775147535683,0.028582130434842874
-0.09118876561948687,-0.09252028141467267
-0.08724782095659167,-0.09395960652955589
-0.08919972944496385,-0.09324538618389705
-0.08540519461611601,-0.09463692137244711
-0.0836961928784861,-0.09527223674237983
-0.06509260898108406,-0.10204624989882466
-0.06392882984972637,-0.10246905843748758
-0.4531306815332441,0.028274734019303836
-0.08334855972242781,-0.0954005587313168
-0.08130513091948467,-0.09614825955169033
-0.07749169597355471,-0.09754009368099023
-0.07551142502785801,-0.0982626679894853
-0.06376337962732001,-0.10253025433474244
-0.06577112460872707,-0.10180036815613502
0.2961694269114752,-0.01792263823181571
0.2943870105873172,-0.018572469396041676
-0.4550838848288102,0.027698553836513713
-0.07954092852848843,-0.09679185186373426
-0.07358693874481188,-0.09896595214286133
-0.07163521695867552,-0.09968068523193102
-0.06972115203672069,-0.10037743607072448
-0.06772674187623139,-0.10109633329131926
-0.06186891738608753,-0.10323322974150259
0.26104161171357676,-0.03074317406819632
0.25908935858113197,-0.03145644993737417
0.25722202835644925,-0.03214030384369988
0.27665926114737,-0.025035934655142297
0.2747064489060448,-0.02574767373575554
0.2729139329957457,-0.02640110715712098
0.29997165025682304,-0.016533970437988744
0.2986711904603481,-0.01700862947916692
0.292280261894045,-0.01933950319684243
0.2902744243524566,-0.020070664037858933
0.2864221208445713,-0.021473939773268738
0.2883751452273709,-0.020762812597788977
0.28448115692509174,-0.022181251467937077
0.28251663495086543,-0.02289779582844391
0.2818596371656402,-0.023137278614383996
0.27869331819772986,-0.02429375682876079
0.2805641298479073,-0.023610379121594402
0.29807175236033656,-0.01722828744888107
-0.4570370994211577,0.027039221042963107
-0.059835168878180856,-0.10399969968250224
0.012968018914933295,-0.12095085456922919
0.013522145993637926,-0.12075052499948472
0.010994946415193609,-0.12166613247557373
0.005244554336274884,-0.12375313240704847
0.005757862338137573,-0.12356707828315965
-0.0052311034554288465,-0.12377646945827436
-0.003370012873530597,-0.12445165795559478
-0.0071750513389691305,-0.12307504516661417
-0.0052957144644121094,-0.1237531035696523
-0.0016158964155612737,-0.12509127825792807
-8.959290857336287E-4,-0.12535501090387366
-0.0076174802665272285,-0.12291575332813356
0.016793960425425948,-0.11957046562147414
0.01745400110823657,-0.1193323822033317
0.2708008530433927,-0.02717123056304324
0.26879748904117007,-0.027902588566116514
0.26689620197668107,-0.02859738429343093
0.2654578147238697,-0.029123026216010643
0.2649444143974851,-0.029311939800487945
0.26300822403981305,-0.030024025228860315
0.25518603628868014,-0.03288625598870808
0.25476304149102286,-0.03304170368455116
0.30164956461771864,-0.015922740233639356
-0.45816776142412363,0.026746005072784778
-0.05942268948422585,-0.1041524238659145
-0.054823800476024115,-0.10582699016552446
-0.054039941985091114,-0.10610965871248072
-0.05211194154795368,-0.10681138017565084
-0.05104936176828673,-0.10720135424533975
0.015027021632851825,-0.12020875903627974
0.00906525875872561,-0.12236843216128047
0.007123861563264975,-0.12307292874272643
0.003318352892911192,-0.12445188410749614
0.001563355746476181,-0.1250918328203044
0.0010359566061591435,-0.1252849849732409
-2.659248596337403E-5,-0.1256760029849575
-0.010711401086049213,-0.12180151395989972
-0.009120412739049594,-0.12237712092013499
0.01883409003360568,-0.11883718958646035
0.18488390679272051,-0.058506419877862204
0.1848998670097349,-0.05850068705203544
0.18288730658759225,-0.05922438074283508
0.17848939365523314,-0.060832922315945864
0.17902349403563406,-0.06063620571777621
0.25323703218876337,-0.03360846227585536
0.2514510555491242,-0.03426901757038142
0.24798840519780177,-0.035548042937591
0.249337229631559,-0.035047942809169785
0.3033277107288049,-0.015305625606664626
-0.4589902918137526,0.0265432947277364
-0.058075397436408674,-0.10465621415321427
-0.05602089086840739,-0.105397034523875
-0.05016048142244415,-0.10752683186757665
-0.04825420337608108,-0.10823639041178716
-0.046057079633142504,-0.10908159395100396
-0.04627187211857341,-0.1089970376398905
-0.04434051170796233,-0.10976768950791176
-0.04321408667394315,-0.11021044042468557
-0.015086105831752988,-0.12022498534250903
-0.013026487718273905,-0.12096561940714474
-0.011052267886781451,-0.12167879279570853
0.022816614551237093,-0.11742761504131541
0.022752889553075095,-0.11744992502152507
0.020531051851208123,-0.11823139651251374
0.020910121548048433,-0.11809804779830757
0.08537292004599105,-0.09469442354745912
0.0872191012309611,-0.09402687472029586
0.18702858133660635,-0.057779012889106765
0.18765982822600985,-0.05755899124607512
0.18097462969906028,-0.059919858329524525
0.17903842489702745,-0.06067724526776228
0.17825700138602782,-0.060942575379828785
0.24734126512685314,-0.03579166004306322
0.24544462872121203,-0.03650721807097369
0.2441831740065305,-0.036994871722644526
0.350182590114519,0.026636185814493948
0.35155691073567263,0.028899247544288922
0.34745130798717877,0.022730306839557284
0.34764985776733315,0.022989076439303143
0.3034101404469495,-0.015275831062035807
-0.4609434626362394,0.02620614025802133
-0.019257700650822194,-0.11873584443067463
-0.01889734026646977,-0.1188648122536653
-0.02281645254161962,-0.11747837785069698
-0.020972719845833526,-0.11812386813906939
-0.015428974442088999,-0.12010222945639841
-0.016855878943271112,-0.11959443662927463
-0.02298534063601944,-0.11742014055130755
-0.03458411227741019,-0.11334742293964245
-0.032598529898926476,-0.1140392195225066
-0.04252110390231036,-0.11048963997613542
0.02443523425293728,-0.11688035021117221
0.0657308064328866,-0.10183577422865331
0.0676836194640441,-0.10112403731899748
0.06388756959920475,-0.10250187370494176
0.05977888721194891,-0.1039912568715796
0.06182094637185746,-0.10324761031338492
0.055971305863643156,-0.10540700517815378
0.05801760129591786,-0.10464362055537797
0.05596936362379408,-0.1054077171514193
0.08917371512854426,-0.09332008774258493
0.08331083574977771,-0.09544309372961085
0.08126449392139277,-0.09618279064675414
0.07546712795151278,-0.0982871430859722
0.0774486998609775,-0.09756814330226027
0.14192952381420093,-0.07418525687291194
0.13993651761179374,-0.0748970284011935
0.143566135849373,-0.07360099915876035
0.18706064632855085,-0.057867147980917154
0.17318379034795095,-0.0628229133163633
0.17358213993091615,-0.0626806849589355
0.17132628054154747,-0.06349693996808184
0.1709159516957989,-0.0636506879334912
0.18492731765355053,-0.05862574066894044
