"Plane Section: Position[X] (m)","Plane Section: Position[Y] (m)"
3.5,5.154766259369857E-4
3.2700000000000005,5.226563080227028E-4
3.04,5.433173423131179E-4
2.8099999999999996,5.73366600773165E-4
2.58,6.211455003486785E-4
2.35,7.0114922523104E-4
2.12,8.076328686498919E-4
1.8900000000000001,9.536276397761449E-4
1.6600000000000004,0.0011799793090846015
1.4300000000000002,0.001521255272828142
1.2000000000000004,0.0018880794487400891
1.1760000000000002,0.002090474694197846
1.1520000000000001,0.002164469687296601
1.1280000000000001,0.0022444793617096333
1.104,0.0023369916451718075
1.08,0.002431906622903693
1.056,0.0025286576017764873
1.032,0.0026382281785041466
1.008,0.0027576949622066123
0.984,0.002880777508063935
0.96,0.0030184447857996076
0.9359999999999999,0.003174997907991312
0.9120000000000001,0.0033465559167738445
0.8879999999999998,0.0035389180842155046
0.8640000000000001,0.003759905466655237
0.841294663689977,0.004000000000000219
0.8399999999999999,0.004013911089198302
0.816,0.0042832433047348545
0.7920000000000003,0.004587824325295226
0.7680000000000005,0.004912306159675289
0.7440000000000004,0.005268476095319102
0.7200000000000003,0.005668318774901293
0.6960000000000004,0.006091177707052912
0.6720000000000002,0.0066386278188733695
0.6480000000000001,0.007246276655719301
0.6240000000000001,0.007927521388634135
0.6000000000000001,0.008817599811212561
0.5760000000000001,0.010030414002247934
0.552,0.01167597040032155
0.5477794083917079,0.011999999999999915
0.528,0.01345593741071416
0.5040000000000002,0.014500474920800362
0.4800000000000003,0.016271056010129396
0.4560000000000003,0.018621914290933336
-0.4800000000000001,0.016249986034284875
-0.45599999999999985,0.018634265756393157
-0.5040000000000002,0.014547855784373105
-0.5483110635881859,0.01199999999999846
-0.552,0.011712809128816124
-0.5280000000000002,0.013496843651066336
-0.5760000000000003,0.010078175039738936
-0.6000000000000002,0.008848831473611748
-0.6240000000000002,0.007932975200559925
-0.6480000000000001,0.007218189677409457
-0.6720000000000002,0.006632803003925188
-0.6960000000000003,0.00609740268505262
-0.7200000000000002,0.005644866443983812
-0.7440000000000001,0.005252387899757191
-0.768,0.004893665819026807
-0.792,0.004569822802213269
-0.8398535741483879,0.003999999999999455
-0.8400000000000001,0.0039983159625189765
-0.8160000000000001,0.004270761162502209
-0.8640000000000001,0.0037552449016396237
-0.8879999999999999,0.003539906328168886
-0.9120000000000001,0.0033453456663325412
-0.9360000000000002,0.003178843747357174
-0.96,0.003027243272142678
-0.984,0.0028906663278914562
-1.008,0.0027645183780043705
-1.032,0.0026487673069823985
-1.056,0.0025393578527603943
-1.08,0.00243459044267747
-1.104,0.0023420025337060504
-1.1280000000000001,0.002251337666039555
-1.1520000000000001,0.002169069666175496
-1.1760000000000002,0.002092120472329605
-1.2,0.0018919960667176097
-1.43,0.0015235188725817553
-1.66,0.00118057368790094
-1.89,9.563262609024174E-4
-2.12,8.045678538127643E-4
-2.35,6.982542745143634E-4
-2.58,6.24169877754822E-4
-2.81,5.762362365625765E-4
-3.04,5.421513157490827E-4
-3.27,5.223617228565575E-4
-3.5,5.182188685264355E-4
-0.34765766378025464,0.043929431319750425
-0.34546559987713493,0.041363020244526795
-0.3515634406321676,0.048153066310012274
-0.34879880786610334,0.04526964368735044
-0.301646648309463,-0.0012024151305288563
-0.2999797761370175,-0.0018091062784170028
-0.3437520051968178,0.03865010773772647
-0.34288876776972743,0.03745648153827151
-0.3525766353545837,0.04917631694076929
-0.29439940651210655,-0.003841436557735339
-0.2961814492815637,-0.003192621212575549
-0.2922927661039784,-0.004608427953601233
-0.2902866110780441,-0.00533885050609994
-0.28838710489202507,-0.006030454882244548
-0.28643405953905493,-0.0067415398593674795
-0.2844928943214287,-0.00744829985002436
-0.28252795926509044,-0.00816370887404855
-0.2805749132277874,-0.008874805148587883
-0.30334775018627025,-5.81616753981096E-4
-0.2980807275891245,-0.0025009977585262024
-0.34121123212992577,0.03355004357993867
-0.3554692720519458,0.05188961747436087
-0.3569463830872892,0.053083056506839144
-0.2787033897153903,-0.009556226021319458
-0.3034255258937614,-5.533231678540647E-4
-0.3406177017244763,0.03159685207464729
-0.33972520929684513,0.029643627076726735
-0.33984673136769605,0.029936388768625397
-0.35937516008630666,0.05512081534250651
-0.2610444571530582,-0.015985779699435484
-0.2590914158323676,-0.016696888928258918
-0.25722281945396874,-0.01737726244058658
-0.276668823238678,-0.010297003425548071
-0.27471577659124014,-0.011008098024341627
-0.2729230295781011,-0.011660896012367031
-0.27080968732790967,-0.012430298294665378
-0.26880569821722305,-0.013159937913305428
-0.2649505530723989,-0.01456359770997817
-0.2630120713166077,-0.015269384732281094
-0.30353243195255664,-5.171280995649697E-4
-0.33848229213082676,0.027690362820828568
-0.3622278646002426,0.056989898214177284
-0.25518533181783504,-0.01811910361450933
-0.2532322855993795,-0.01883019939152275
-0.2514430441662245,-0.01948178069146935
-0.26690359699171995,-0.013852495618352806
-0.3035485763855092,-5.155708376865628E-4
-0.3866644198520681,0.05308638580979501
-0.3832335669529428,0.04917975142783885
-0.38281341111468126,0.04841829572420818
-0.38227371889992107,0.047226518884086174
-0.33789393596751466,0.02699420424188934
-0.336906432398528,0.02573706126546902
-0.33526820095773785,0.023783752722628
-0.3359410766623852,0.02462244827532902
-0.3867191317356131,0.05314385995883915
-0.39062507559204507,0.05587677864489289
-0.36718712299271705,0.059915459735672624
-0.3692626657163779,0.06089693634539767
-0.3632811129464072,0.057773365409885265
-0.23574231464414067,-0.025198435360343732
-0.23760797209220158,-0.024519120073089266
-0.24932621435076374,-0.020252449139549718
-0.24732479434911817,-0.02098117098242764
-0.239561013845073,-0.02380801203126184
-0.30376406310731063,-4.4181277754359177E-4
-0.3335096966505496,0.02183043070565313
-0.3339882005354369,0.022400847303200182
-0.38151638375836133,0.045273309027793876
-0.3920907794206896,0.05699324374778072
-0.3710931585210113,0.061830096674616544
-0.37499924328618706,0.06330523524425732
-0.23174886418842347,-0.02665249186395548
-0.23370190360523413,-0.025941377406094167
-0.22996314521156325,-0.027302787194914947
-0.2278428047188691,-0.028074773963468372
-0.2258439621357286,-0.02880258918204426
-0.24542012918309827,-0.02167466065871081
-0.24346709061905963,-0.022385777458724852
-0.2415313119220767,-0.023090623663420216
-0.303996028552047,-3.632654077653856E-4
-0.3320353048881547,0.020353488796547563
-0.3316153822713403,0.019877093473910007
-0.38086082680933114,0.04359183568653655
-0.3807790382466163,0.04332010141093873
-0.3945310416064563,0.058411910621646634
-0.3984370881948049,0.0602278232565248
-0.37890534936803877,0.06459009672821153
-0.3796035754333844,0.06480434485899164
-0.21426189572180177,-0.033019799426220346
-0.21612459262758002,-0.03234152775202044
-0.22393673075657938,-0.02949701625839696
-0.2219836899836288,-0.03020812699158735
-0.22005061967709627,-0.0309120258137566
-0.21807763711634773,-0.03163042722438703
-0.3041001277549162,-3.356153380604648E-4
-0.33008239737099837,0.018412083184222137
-0.3296374222360904,0.017923746871372662
-0.3274687541012476,0.015970378903862267
-0.3281294709806885,0.0166391432320205
-0.3803990569742379,0.04136693382949347
-0.3998498842549444,0.06090036302253399
-0.3828114764508362,0.0656874995295606
-0.38671764634783606,0.06640273400017241
-0.3906238408507107,0.06689833145289065
-0.20848336745182405,-0.03512400538453157
-0.2102655229531112,-0.03447500454045423
-0.20524503957907636,-0.03630322919965884
-0.20635948838350038,-0.03589735502814858
-0.21221855607117887,-0.03376387278296998
-0.3042518202423317,-2.944422445323892E-4
-0.32617654533572604,0.014859550153916335
-0.3253002362502973,0.014017010953187425
-0.3228861150376143,0.012063615487642978
-0.3242236089604286,0.013175738239177798
-0.3802280265250822,0.0394137896567487
-0.4023430724422402,0.06260020361540335
-0.4062491371258954,0.06425459381790462
-0.39453005505360417,0.06721808245566288
-0.39843629025560734,0.06735039116804603
-0.20436335393938865,-0.03662461072203644
-0.30454302309634507,-2.0183968584924073E-4
-0.32043717726543375,0.010110216121607948
-0.32227066320173536,0.011575684405525909
-0.38031559096611256,0.03746067445431292
-0.40734469861823924,0.06480745268889747
-0.40234254671871883,0.06729291891746826
-0.40624892263667145,0.06616916834957083
-0.20050086393941255,-0.03803205465068273
-0.2024537237980222,-0.03732044703264755
-0.1985708521047464,-0.03873594581736744
-0.19278317668105982,-0.04084578595454969
-0.19464265610035802,-0.04016789848723895
-0.1920825313958996,-0.041101141122920015
-0.30511723578867,-2.5793908243326103E-6
-0.3054768658271768,1.2013785342977366E-4
-0.30538215291992554,9.196957252788847E-5
-0.3203177131861464,0.010013628532680657
-0.31836474975063545,0.008571361606997268
-0.31784139952884904,0.008156800305129431
-0.31528030311764443,0.00620338837399434
-0.3164117944771164,0.007056239054413906
-0.38084378997077517,0.03550760861603929
-0.18487891479069882,-0.04372746908992543
-0.18288546144008894,-0.0444540787873304
-0.19073719276922702,-0.04159181789280965
-0.18878455301392455,-0.04230403002896932
-0.18700638082280108,-0.04295276238543988
-0.19659545776567153,-0.03945613104016485
-0.3056578880227715,1.9561062444179716E-4
-0.31445883291096133,0.00559728583425796
-0.31250584574007656,0.004366885667992298
-0.38281498049982404,0.034409644064081
-0.38086173578061977,0.03547817269582361
-0.17709291675150413,-0.04656487567800065
-0.17902034640449155,-0.045862322676551014
-0.17316178314691544,-0.0479971903490633
-0.17511468785779077,-0.04728570591867607
-0.17130508031264835,-0.04867343474564137
-0.18097324661560243,-0.045150825887466946
-0.31233505854333093,0.004249933406855409
-0.30578219597950174,2.4219746087737965E-4
-0.3066468559866769,9.277677919017625E-4
-0.30626324957935014,3.4300315936498576E-4
-0.3867213229317722,0.03358479642533339
-0.3847681656158273,0.0338731457528197
-0.16925585256214012,-0.049419826433188485
-0.16802492868034963,-0.04986866584619887
-0.31055285977291874,0.0031257407589435036
-0.30920567200580534,0.002296457810346532
-0.3085998703716075,0.0019152498503796234
-0.388674443131926,0.03362775024091638
-0.16720164569201637,-0.05016911059706983
-0.16140738308957234,-0.052283023946162896
-0.16339821817454708,-0.051557245265613186
-0.3894868276951957,0.033555451880770325
-0.15168149197381486,-0.055828080082162945
-0.14982778931569038,-0.056503245886435106
-0.15949268045448567,-0.05298096036049758
-0.1575398043349524,-0.0536925233175854
-0.1556150315535194,-0.05439392030947193
-0.1654386367861465,-0.05081305734965762
-0.3906275838372121,0.0334876710546626
-0.14572336483572423,-0.057997737213660444
-0.14777553210987696,-0.05725063575049591
-0.1419163288692566,-0.05938374569683267
-0.1439594404992443,-0.05863988742396257
-0.15363429639756143,-0.05511632021117559
-0.1399278017623417,-0.06010782840734623
-0.39243307670278926,0.031602656935928584
-0.13801041455942534,-0.06080642648042206
-0.1360579073492558,-0.06151900265442184
-0.13532240081629454,-0.061787893382024686
-0.13020146300763252,-0.063659689971801
-0.12835137007186254,-0.06433539991440178
-0.3928883625616767,0.029649582929214942
-0.39258099073661074,0.030971488954479667
-0.12629676384585878,-0.06508570818374072
-0.13413715772664112,-0.062222972555513
-0.13215413887070807,-0.06294757700636788
-0.39359593223416167,0.027696537185785103
-0.1242477679552878,-0.06583372763790243
-0.12043863706834304,-0.06722177465740442
-0.11844101760129466,-0.06795083470263491
-0.402347186208676,0.025879885947871054
-0.4003940499839289,0.025979970916637632
-0.3984409082684723,0.02612906708827227
-0.39648775992101243,0.026337361893711143
-0.39453455098072004,0.027086520655211055
-0.1224837915132295,-0.06647646112846936
-0.11747458615819421,-0.06830472858863294
-0.10688231798685124,-0.07218773472310698
-0.10872970078153939,-0.0715140046276949
-0.4032458882658546,0.02574449325527948
-0.1145843152220117,-0.06936829145036164
-0.11653510233684766,-0.06865099100027701
-0.11266672941381126,-0.07007244977925592
-0.11068270808359154,-0.07080280196600675
-0.106574075965069,-0.0723013190488429
-0.406253550404233,0.024860771858597665
-0.4043003494413375,0.025538722769651627
-0.4089366082645495,0.023792005772722058
-0.4082067650574864,0.02406061802230154
-0.09897344006885517,-0.07509412083892064
-0.09698675042185217,-0.07580714102600924
-0.09310393845925054,-0.07719894610975808
-0.09455337332089964,-0.07667802214425196
-0.10482834606860761,-0.07294920843497044
-0.10278532187435557,-0.07370582906031405
-0.10102264746963781,-0.07435287385553827
-0.4101599626969374,0.023412332880111002
-0.09118526798907681,-0.07789159938342445
-0.08724170376372592,-0.07932373010482847
-0.08919545970246712,-0.07861458358872367
-0.08539469178941266,-0.07998900013552963
-0.08333210517241073,-0.08073629193594759
-0.08129073883150895,-0.08148965758934083
-0.0950607941296109,-0.07649831306826987
-0.414066383909103,0.021884276980780736
-0.4121131631740453,0.022738718221471728
-0.07952970591499098,-0.08214195500648433
-0.0776324306283241,-0.08283888848059778
-0.07748205988892491,-0.08289455439393609
-0.0755035062003729,-0.083621845283935
-0.0639294137968563,-0.08785158805484393
-0.06577459353596249,-0.08719082156680348
0.2610425332141857,-0.01608365346498806
0.2605424703121191,-0.016266567934971166
0.2786971293406044,-0.009642180001523021
0.28056841141729216,-0.008960095409344112
0.2780809758660331,-0.009866803035123736
0.29807627129700476,-0.0025788592563172176
0.2970476081885389,-0.0029535890001162377
0.2961736763081584,-0.0032723307890243974
0.2943917578918041,-0.003923475334152342
-0.4141913360761158,0.0218394694460851
-0.07358251934608476,-0.08433474085549836
-0.07163031802781919,-0.08504815716770378
-0.06971763972991477,-0.08574871638525197
-0.06772798174625794,-0.08648066507719157
-0.061861974034799184,-0.08859508640885005
0.26494763875735117,-0.014658749195540655
0.2630094856495631,-0.015365439631770537
0.2590916586694607,-0.016800718097690064
0.2572246571839624,-0.017485475230114116
0.274711205483369,-0.011098695152958322
0.2766633091848449,-0.01038500877809933
0.2729190948189031,-0.011753242283604644
0.29997666604927625,-0.0018858390115856882
0.29027918153788745,-0.005421688153953455
0.2922849733305542,-0.004690402847044639
0.2864270974171249,-0.006825566569643778
0.2883799962027336,-0.006114094255577993
0.2844860954872795,-0.007532773719788383
0.28252135067769274,-0.008248705514141558
-0.4218790840223463,0.020098462812500405
-0.4199259140020186,0.020500214040180556
-0.417972744213887,0.020899892630280026
-0.41601957568185294,0.02128835921665937
-0.05981947241600275,-0.08933751745531045
0.011003584019209443,-0.10702782693399474
0.011418444696372626,-0.1068778660355504
-0.004095013600360314,-0.10954685310731041
-0.0033625448455826363,-0.109812273868645
-0.006516913106510643,-0.10867326759175602
-0.005288885237399766,-0.10911546451118476
-0.0016082844263061204,-0.11045181994710156
-0.0013275243730101719,-0.11055448793768492
0.27080583873998637,-0.012522881530512328
0.26880202617258636,-0.01325300651918139
0.26690023150331804,-0.013946406927820357
0.2551882029688416,-0.018230156852671413
0.2532357877567666,-0.018942987060815417
0.25144714742745217,-0.01959622067170872
0.24902859666771746,-0.02048355844469014
0.24933212276253225,-0.020371850585758196
0.30165456618226594,-0.0012746829431557337
-0.42644504683043943,0.019887717213457407
-0.4277384794366455,0.019916568770180457
-0.4238172165203084,0.019887422818394805
-0.058059381441749686,-0.08999315535521582
-0.056833061171086094,-0.0904534980927758
-0.050774600182473525,-0.09265936623103117
-0.05015171167731591,-0.09288367429960274
-0.04824069755749943,-0.09358022613560653
-0.04430026826752658,-0.09503809677586052
-0.0424719207949143,-0.09573549816338017
0.014725658151790359,-0.10568688899022624
0.012978103056009778,-0.10631652212234056
0.009073393172843223,-0.1077287474370058
0.007132191065022449,-0.10843382025549203
0.003326455111419457,-0.10981231190873475
0.004472851207470607,-0.10939675374265795
0.005253107201171768,-0.1091147635779809
0.0015712497512411503,-0.11045171807969394
0.0012086420977802008,-0.11058441458136645
-0.007169208761452547,-0.10844005080781285
-1.8772300867033133E-5,-0.11103573236598208
-0.008763350565067149,-0.1078676778486459
0.016805840030544875,-0.10494106513399243
0.017907061676211238,-0.10454785237215863
0.17710085930929104,-0.04668988117806119
0.17902892208237714,-0.045989067634474745
0.24733503093627285,-0.021112468301602356
0.2454319453679139,-0.02181029955273414
0.24348185478701548,-0.022529518859290335
0.2415499483482345,-0.023245007887824645
0.24130032413265984,-0.023337055062568054
0.23958523595570266,-0.023977748307313283
0.23763491045358487,-0.0246963219480981
0.23577376776452474,-0.02538804592561293
0.3029367739409246,-8.043688748692436E-4
0.34765482916163504,0.04382748789813182
0.3455259546436016,0.04128560866304293
-0.4292110902938644,0.01988802709249555
-0.4257853609606902,0.019858224437882592
-0.4238322328740588,0.019885666956789543
-0.05601556037946266,-0.09076332320586897
-0.05404029705696582,-0.09149156233377193
-0.05210847866900985,-0.09218279770040183
-0.04792003077683672,-0.09369870670250946
-0.046248504023073365,-0.09431378896667093
-0.04208573725176013,-0.09588538506309278
0.01503734512817929,-0.10557508224001147
-0.012889515131875914,-0.10638385072027767
-0.011046661639058208,-0.10704432473029582
-0.009114651208997203,-0.10774225082042052
0.018848949509719368,-0.10421597846415137
0.19010674337467093,-0.04202592379697861
0.18881367511857544,-0.04248724279502125
0.18703309036671092,-0.04312934532685873
0.1751218365013731,-0.04740852989800878
0.17316962618697246,-0.04812192325414491
0.17131396391643497,-0.04880102785596397
0.1710468141672444,-0.048898328789378144
0.18490599741559954,-0.04390507764961821
0.18098365109752493,-0.04528259676442103
0.18108933424058443,-0.04524442445594265
0.18290632090000902,-0.044614584028412875
0.23340811082182217,-0.026271008396923333
0.23373923878393013,-0.026147154608674457
0.34888506364999605,0.045191482367552875
0.3437480034850631,0.038689100248708544
0.3428705393536226,0.037379656123933715
0.30333393832776423,-6.585530595428211E-4
0.3515615388944399,0.04793093788542236
-0.4296916111977199,0.019856327460298293
-0.040421795449606814,-0.09653614616348025
-0.03879829558119966,-0.09717597649731205
-0.015014540714723527,-0.10563788124572118
-0.013022981874332758,-0.10633691587409845
0.020159408082910987,-0.10375609500477181
0.0209300879252384,-0.1034908716016556
0.021917027109130065,-0.10315821288187121
0.06573970790498622,-0.08719818392025523
0.0676935631835326,-0.08648931164167083
0.06389743621166594,-0.08786693631873194
0.05979027650405605,-0.08936050483063782
0.06183365832881239,-0.08862049357603813
0.05597142045927671,-0.09074526337010187
0.05802369001996455,-0.0899982994892824
0.053996380454178115,-0.09147412199951689
0.052635148033528825,-0.09198162828548045
0.0833202844903716,-0.0808070073267014
0.08513981555401938,-0.08015502055728409
0.08538618191348886,-0.08006881717387829
0.08724193975389746,-0.07942758889316778
0.08127504743265918,-0.08154974095044107
0.0754757060199841,-0.08364866433396782
0.0774580407869863,-0.08293176108680843
0.16244920584950728,-0.052088935419291965
0.16341019500233456,-0.05169334356470384
0.16545230960660526,-0.05095381602890239
0.15159543571612583,-0.05603800770741085
0.15170515532994522,-0.05599630192491607
0.1898930194492326,-0.04219732161557334
0.1692674692146314,-0.04955493147977791
0.16721707195419583,-0.05031468710334322
0.2317936477122327,-0.02687874052522636
0.23001693316311866,-0.02755378415693236
0.22831880976649893,-0.028216352622674665
0.3402701961129955,0.03347369741511849
0.3036795992392747,-5.365487638085181E-4
0.3527595880295833,0.049097298330241
-0.437504263220243,0.018499781000501616
-0.4355510918176346,0.018913870727836474
