"Plane Section: Position[X] (m)","Plane Section: Position[Y] (m)"
3.5,0.001893170213326907
3.27,0.0019159595114643865
3.0399999999999996,0.0019903736303475313
2.8100000000000005,0.002097051127686299
2.58,0.002269365196295965
2.35,0.002539391856789581
2.1200000000000006,0.002884341584511731
1.8900000000000003,0.003364342483932829
1.7101197185374457,0.003999999999999875
1.6600000000000006,0.004183078249633483
1.4300000000000002,0.005561985664966811
1.2000000000000006,0.006972583854044706
1.1760000000000002,0.007695817221821392
1.1520000000000006,0.008296084152745159
1.1280000000000001,0.008987558910213786
1.104,0.009514221077733889
1.0800000000000005,0.009980890436149841
1.056000000000001,0.010302312971732166
1.0320000000000005,0.01068372603791592
1.0080000000000005,0.01119526496884464
0.9840000000000005,0.011703777725844463
0.9726002267340392,0.012000000000000031
0.9600000000000004,0.012328905263698203
0.9360000000000005,0.013002468065979824
0.9120000000000004,0.0137006715497858
0.8880000000000003,0.01479645561882689
0.8640000000000005,0.01634081268373052
0.8400000000000004,0.017867010317672065
0.8160000000000001,0.019011901073294375
0.7970985284618346,0.01999999999999946
0.7920000000000003,0.020280320089268482
0.7680000000000005,0.021762334260689624
0.7440000000000007,0.023342957047505615
0.7200000000000006,0.02520662663688769
0.6960000000000007,0.027265958478809492
0.6895749337830759,0.027999999999998887
0.6720000000000006,0.02995482193620772
0.6480000000000008,0.03318812676899595
0.6306894214056494,0.0359999999999983
0.6240000000000009,0.03715783840914204
0.6000000000000008,0.041550563180248426
0.5896988237427304,0.04399999999999757
0.5760000000000007,0.047220176949857695
0.5577455570657482,0.051999999999997076
0.5520000000000005,0.05366052965505275
0.5328983999178944,0.059999999999995994
0.5280000000000002,0.061891135164284156
0.5141544828371356,0.06799999999999543
0.5040000000000004,0.0756439306620963
0.5035011354497172,0.07599999999999482
0.49694918043002956,0.08399999999999408
0.48907637928976727,0.09199999999999303
0.48428525877728673,0.0999999999999925
0.4831124631130872,0.12166666666665962
0.4862274270392855,0.14333333333332593
0.4877535887491854,0.16499999999999299
0.4687386443522399,0.16499999999999282
0.4559999999999979,0.1459505239747734
0.4799999999999971,0.17257763222653255
0.4549412664678544,0.14333333333332599
-0.5895417624452957,0.04399999999999626
-0.5999999999999999,0.04150971759917999
-0.5575188010316798,0.05199999999999543
-0.5759999999999997,0.047194737431945494
-0.5327893326278373,0.05999999999999474
-0.5519999999999998,0.053585439383198576
-0.5146721994542767,0.06799999999999384
-0.5279999999999999,0.0619171234339987
-0.6303847901615114,0.03599999999999698
-0.648,0.03316168570374166
-0.624,0.03710045548785983
-0.5045146778527242,0.07599999999999316
-0.49569668782620235,0.08399999999999239
-0.5040000000000001,0.07644711935124288
-0.6894298430048627,0.027999999999997846
-0.696,0.027239589308642703
-0.6719999999999999,0.029962345209175158
-0.4870396222833579,0.09199999999999164
-0.72,0.025099174252791803
-0.48322801064925747,0.09999999999999096
-0.744,0.023176842297902733
-0.4822742185135769,0.12166666666665754
-0.4694575347367022,0.14333333333332463
-0.45600000000000357,0.13143477815146482
-0.768,0.021573334568013774
-0.48435718383140575,0.14333333333332482
-0.4720829573126259,0.16499999999999132
-0.794401804107017,0.019999999999998637
-0.8159999999999998,0.018783569022505723
-0.7919999999999998,0.020143219559170922
-0.4851832857892679,0.16499999999999146
-0.48000000000000853,0.17122166534647243
-0.8400000000000002,0.017620590695963632
-0.8640000000000001,0.016405061618477025
-0.8880000000000002,0.015075276468486831
-0.9120000000000001,0.013902676664165779
-0.9360000000000002,0.013024828907993478
-0.9703722734939451,0.011999999999999587
-0.9840000000000002,0.011613724831446102
-0.9600000000000002,0.01229731830739993
-1.008,0.011027220046318346
-1.032,0.010500084977115843
-1.056,0.010074125258049696
-1.08,0.009725613241895114
-1.1040000000000003,0.009306250623923762
-1.1280000000000001,0.008967509143097806
-1.1520000000000001,0.008516106567867499
-1.1760000000000002,0.00798198299247864
-1.2000000000000002,0.007143643587013921
-1.43,0.0056000680631104974
-1.7115237420260523,0.004000000000000085
-1.8900000000000001,0.003380887393984399
-1.6600000000000001,0.004184575035402811
-2.12,0.0028855351904396535
-2.35,0.0025270738279540945
-2.58,0.0022811782566410314
-2.81,0.0021105825746962053
-3.0400000000000005,0.001985513667326808
-3.2700000000000005,0.0019154612360358044
-3.5,0.0019031106166260171
-0.3016864230718807,-0.07422118118691656
-0.30001957173581983,-0.07482793924874095
-0.35160129803070417,-0.031160677790048084
-0.3511968863504228,-0.03165209517792981
-0.3470120415127454,-0.035559069803054205
-0.34769575501451655,-0.035244308738365024
-0.3555067176157555,-0.026364151466568404
-0.3542442762048903,-0.027745317492452543
-0.3577479643026221,-0.0238384608032133
-0.2944393453971322,-0.07686064316153124
-0.2962213499764035,-0.07621172308938567
-0.29233275982258955,-0.07762778505570418
-0.29032665733040364,-0.07835835188312211
-0.28842719476904893,-0.0790500760654389
-0.28647419376877303,-0.07976128284875182
-0.2845330715069156,-0.08046816080928387
-0.28256818218391505,-0.08118369543141532
-0.2806151781415412,-0.0818949070356402
-0.3033875270600689,-0.07360031536235637
-0.298120587190351,-0.07551998759535654
-0.34574290515881007,-0.036833615639564374
-0.3451932772070523,-0.03751250973428724
-0.34351327953229327,-0.03946592563937749
-0.34379017963683306,-0.03914103096859852
-0.3594122137158325,-0.022009549302156983
-0.27874369126440296,-0.08257642851882052
-0.30342859133063765,-0.07358541702446299
-0.3419693858947807,-0.0414193179793317
-0.36131434930736517,-0.019931593258593266
-0.26108518368812156,-0.08900714931240121
-0.2591321811465468,-0.08971836503783973
-0.257263621666744,-0.09039883988063552
-0.2767091669349029,-0.08331732167142182
-0.27475616382787815,-0.08402853584410017
-0.2729634546998652,-0.08468143786428087
-0.27085017100524855,-0.08545100096231907
-0.2688462353830866,-0.08618078747315279
-0.264991185281433,-0.08758470827844987
-0.2630527537403351,-0.08829063320289407
-0.3035256758806482,-0.07355288203664445
-0.34183747261520037,-0.04155529783863807
-0.34016947439486195,-0.04337275464637836
-0.3383856659987349,-0.045326188525319895
-0.3398847142535078,-0.043673042350045245
-0.36331772213880853,-0.017726119993652707
-0.3648867728094481,-0.016024724668466075
-0.25522618492373883,-0.09114082081918365
-0.2532731851636813,-0.0918520441826611
-0.2514839695550242,-0.09250369638626697
-0.2669441791962025,-0.08687346886382812
-0.30357899331566446,-0.07353768180637801
-0.33793195828216893,-0.0458045927199088
-0.3365662780803755,-0.047279628564525514
-0.33470147421573115,-0.04923307646706988
-0.33597919424198175,-0.047889540253475846
-0.36722321581816936,-0.013357536645802255
-0.368340042182816,-0.012117876708757639
-0.23578364971597354,-0.09822147612421792
-0.23764927166551683,-0.09754206335313187
-0.24936719390448914,-0.09327451359399064
-0.24736582875647944,-0.09400338607468478
-0.2396022624192167,-0.09683081525822712
-0.3036517696597388,-0.0735171829276908
-0.3328005928958542,-0.051186530616092574
-0.33402642181906533,-0.04992607206314551
-0.37082249814454143,-0.008211196836280877
-0.2317903168252961,-0.09967585547552624
-0.23374329085117507,-0.0989645614460567
-0.23000463715288347,-0.10032625872661773
-0.22788433466675148,-0.10109834987729593
-0.22588553028723662,-0.1018262700074433
-0.24546121989781636,-0.09469703038080973
-0.24350823445470698,-0.09540829305858992
-0.2415725046286771,-0.0961132734682274
-0.3037107580833565,-0.07350466733461301
-0.3320736431219491,-0.05192636625732007
-0.3308848457785799,-0.05313998733898915
-0.37112849944445936,-0.007775759735641029
-0.37350490834150263,-0.004304482343599331
-0.2239783811709543,-0.10252092298691226
-0.22202541281171967,-0.10323223257696842
-0.22009236068762839,-0.10393618132697302
-0.21733370446214745,-0.10494088363316645
-0.2181194231502353,-0.1046547063756843
-0.3037873844801641,-0.07348972537803454
-0.3301208620596722,-0.05391300013901283
-0.3289534290342657,-0.05509344677493231
-0.32699813290705093,-0.057046910345365354
-0.32816807774103435,-0.05588082638089267
-0.3750338671010416,-0.0026793126211572004
-0.21430394673897468,-0.10604480623117964
-0.21616652902530706,-0.10536621981300508
-0.3040030651935024,-0.07342655292793554
-0.32621528928249316,-0.05782474194991599
-0.3250198470538645,-0.059000377896256076
-0.3229960579881454,-0.06095385332559703
-0.3242624961090315,-0.05974142575957277
-0.3771681674319006,-3.9759802614314265E-4
-0.21030781478324984,-0.1075006726174704
-0.2085259620705184,-0.10815050490797098
-0.20640225606709106,-0.1089243297911298
-0.20440617228753535,-0.10965172454268483
-0.21226069154560703,-0.10678911150257107
-0.3041688985291494,-0.07338912332659694
-0.32051136635722227,-0.06290740855589022
-0.32230969520118913,-0.06161343853103361
-0.3789392680519815,0.0022248378857646876
-0.3800487247871089,0.0035091507738545472
-0.20054417710840605,-0.11106052708240703
-0.20249679960810096,-0.11034826776277482
-0.20049419086847972,-0.11107874824781014
-0.30453032679716036,-0.07328509705512916
-0.30554904446614156,-0.07290052811613738
-0.3055381217080323,-0.072906059830372
-0.32035681405898675,-0.06302204548199833
-0.31840390587107503,-0.06427444582713408
-0.31772123605819985,-0.06486101667002592
-0.3154821179012781,-0.06681452938157897
-0.31645106845097115,-0.06593557644806078
-0.3828447199363527,0.0068348145904447415
-0.38339355748321513,0.007415979958769246
-0.18882826794527846,-0.1153336047436123
-0.19078108129485763,-0.11462186949735145
-0.18705012104345123,-0.1159824063357539
-0.18609377740796826,-0.11633111515961345
-0.19861429967987015,-0.11176478714133162
-0.19468663197141287,-0.11319819024693924
-0.1928271352411108,-0.11387603004535204
-0.3056505669249665,-0.07281966863084526
-0.31449824812445926,-0.0676954337435568
-0.3129387172025107,-0.06876809477679537
-0.38675021036433177,0.011222176784896735
-0.3868511771603313,0.011322828671686172
-0.18492314925960257,-0.11675847024007377
-0.18292984141307284,-0.11748547936885971
-0.1966392618611995,-0.11248595122048563
-0.30577387225858993,-0.07274630893750289
-0.306686528254175,-0.07220186818728364
-0.30622943570379363,-0.07267550648442589
-0.31254535710073594,-0.06904696849007289
-0.3906551313967483,0.018898169925947138
-0.1771378089223979,-0.11959768249420175
-0.1790648782241907,-0.11889414008906223
-0.17320689157088437,-0.12103059085071763
-0.17515987167256386,-0.12031931350539657
-0.17135011460493568,-0.12170663165500299
-0.1810177078756387,-0.11818244960772037
-0.31059242156772393,-0.07014143303891575
-0.30978896147731805,-0.0707217651566897
-0.3086395387358942,-0.07154028130758733
-0.3908023585291602,0.01913601289871985
-0.3951318499620507,0.026949262626585074
-0.3984655408790614,0.03097294993208705
-0.40161226781020387,0.03476288476715715
-0.40627625147109336,0.041308624861610646
-0.4103247194481523,0.05038939348051243
-0.4072566757180899,0.04257636216046236
-0.16930079478599347,-0.12245277048877251
-0.16724621021160557,-0.12320101726235679
-0.16145090642866608,-0.1253120708542569
-0.1634419905563569,-0.12458697618754958
-0.41274052987616505,0.058202311872488574
-0.45087118667788284,0.1285214148914222
-0.45313455639279837,0.13773765360707269
-0.4633939704396073,0.15977358356217547
-0.46875454671547223,0.1666731616995177
-0.45485147012571026,0.14414710427429228
-0.15172407480842032,-0.12885454377103694
-0.14987076688335985,-0.12953079348230395
-0.15953596788324542,-0.12600935933639443
-0.15758290632163752,-0.1267204129929392
-0.15565791554289388,-0.1274212112763623
-0.165482696507665,-0.12384357750834944
-0.4140853696865663,0.060841313521342505
-0.41728189501030666,0.06601559828429862
-0.43116312864471396,0.09726800215788992
-0.4375151367456282,0.10550612215741403
-0.443308054921363,0.11289510517200302
-0.14709450974895516,-0.13054566701699766
-0.1478193291508796,-0.13028043360199484
-0.1536768799840448,-0.1281427860791367
-0.4218947422329079,0.07890507534424634
-0.42351183143375515,0.08164167717345637
-0.14576937674422272,-0.13103361711313288
-0.1419650488980973,-0.1324270621317412
-0.14400695799029845,-0.1316799016752554
-0.13997765021735942,-0.13315424349868718
-0.13919198099885277,-0.13344199973927992
-0.13806244454792063,-0.13385883198823295
-0.1361124092344559,-0.13457819571583982
-0.13419306948907703,-0.13528603637096143
-0.13026615078917086,-0.13674685211221552
-0.12841734679970068,-0.13742610115759207
-0.12636337051515925,-0.138178138882239
-0.1334582588656234,-0.13555777506745204
-0.1322167480883392,-0.1360290315961636
-0.09899892227989693,-0.1480736139392722
-0.097017055118082,-0.14879987840527298
-0.1069244279773118,-0.14521289212016464
-0.10877286220261653,-0.14454204942545648
-0.10104733132493723,-0.14733017384463562
-0.11271274857611238,-0.14310834326387425
-0.11392967200057816,-0.14266942875743682
-0.1107258104537183,-0.14383068461850332
-0.12431320014346926,-0.13892293289232177
-0.12049993709813467,-0.14029963284208025
-0.1185000312348814,-0.1410224141689551
-0.09509525915952532,-0.14950054082840314
-0.10486263536414325,-0.1459528879450136
-0.10231880156552779,-0.14686996994473453
-0.10281279397071844,-0.14669078642602093
-0.11659083610795785,-0.14171356293869092
-0.11463460447511381,-0.14241591158624317
-0.122547138191792,-0.1395599395084099
-0.08674208855217862,-0.15254248426155087
-0.08543779585611193,-0.15301689113373232
-0.0839881206450927,-0.15354538663046569
-0.09509463745615616,-0.14950076921886876
-0.09314188964677254,-0.15021268443836325
-0.09122544717423249,-0.15091145679498993
-0.08923574668666338,-0.1516347372793749
-0.08728272121943483,-0.1523458900509975
-0.08337672376424848,-0.15376834244822268
-0.08133248950552774,-0.15451383112054323
-0.0775189887345729,-0.15590548416784653
-0.07553926861828196,-0.15662957090242033
-0.07956856057019887,-0.15515817422184278
-0.07369961304906157,-0.15731986143686164
0.2961372574542257,-0.07633697121980738
0.2943544317329113,-0.07698584721436799
-0.07362104618824243,-0.15735005532794608
-0.07167703252746316,-0.1580859545012455
-0.06976539630952631,-0.15878937458145417
-0.0689748629032827,-0.15908207655369136
-0.0041425560882526165,-0.1825779204286055
-0.0034077069311419564,-0.18284501305895637
-0.007210815966136399,-0.18146351414693979
-0.0053329637198330036,-0.18214556323150682
-0.001653837027673651,-0.18348398411667893
-0.0014938803790688236,-0.18354247892498304
-0.008867085344789439,-0.1808628868295066
0.02085989585567553,-0.1764629559441465
0.021573044067492282,-0.1762049740753811
0.01675043463822703,-0.1779537889215814
0.0187881171304672,-0.17721378681870542
0.2980404289756684,-0.07564422134847498
0.2932265287830975,-0.07739678369256153
-0.0677777621461362,-0.15952687942922544
-0.0662354669659188,-0.16014210263916856
-0.06585244547584655,-0.16031412049932256
-0.06525583774768354,-0.16059249611619042
-0.02235353018402973,-0.17597213098723674
-0.020991117767711995,-0.17646483314384212
-0.03406307277010902,-0.17175415460311866
-0.032582809701755436,-0.17228648100542499
0.012927995540786915,-0.17934380347284723
0.014984832774935397,-0.17859575668021438
0.009024835784956031,-0.18076024288385942
0.010556842951425397,-0.18020416324234093
0.010955206092361893,-0.18005985450093742
0.00708347795368588,-0.1814647409262319
0.0052050568127841625,-0.182147326448563
-6.526707253707572E-5,-0.18406709732402424
-0.012107246496079168,-0.17969115053329524
-0.011085677418068535,-0.1800609706230396
-0.009153829788503858,-0.18075925068416115
0.024652141417300634,-0.17509392932550025
0.025853703150803035,-0.1746601112374727
0.02269715830473014,-0.17579970090673339
0.29994113545971346,-0.07495012402795394
0.29224826453019503,-0.07775451017969019
0.29024373873263387,-0.07848928215809872
0.28639309062627705,-0.07989711007577728
0.2883453752618168,-0.07918394909194634
0.2844526369812745,-0.08060582463950314
0.2838035506790434,-0.08084311527196356
0.27984831785352177,-0.08230967012680947
0.2805400554753884,-0.08204717340859291
-0.06407966494576418,-0.16116128690048181
-0.01891888219389331,-0.17721441219011927
-0.022828702702168135,-0.1758024584643601
-0.016881236927803127,-0.17795451674125298
-0.029230277920964293,-0.1734863489210503
-0.02869181248178328,-0.1736800757968378
-0.026781365481899334,-0.17436958102349578
-0.02478272471962792,-0.17509404221758015
-0.03064871616262002,-0.17297957259167346
-0.03456244560058901,-0.17157835220301074
0.003279331388146103,-0.1828473196779188
0.001524777171935834,-0.18348895886138722
-0.015116448099578565,-0.1785987533596699
-0.013059676808861503,-0.17934720382897612
0.02665216184631153,-0.17437326361840366
0.028563143223506775,-0.17368523293203533
0.08532548336480483,-0.15306700345104768
0.08717025111287324,-0.15239556956350853
0.2063326102896545,-0.10909166915627566
0.2043358302916701,-0.10981715086980864
0.3016197981621268,-0.07433777769778002
0.2824895440154274,-0.08132629747747684
0.28055363865881977,-0.08208451301127019
0.28002825305651985,-0.0822715748703989
0.27903902108087597,-0.0826137227999569
0.2795626820701493,-0.08242192005180812
-0.062050232143018996,-0.16190033798389566
-0.062011057707680756,-0.16191399096202952
-0.06407579657555079,-0.1611630743938874
-0.03662255483563542,-0.17084585500176253
-0.03763375126937493,-0.17049545396495178
-0.04150713596401184,-0.16914732803679106
-0.04044771976288522,-0.16951683288399427
-0.04252827569228244,-0.16879975628826202
-0.04438623392523987,-0.16818367129668188
-0.03839730907367,-0.17022972222340768
0.030463826319637052,-0.1730015630576798
0.09111345858141003,-0.150962460541328
0.09303161692848697,-0.15026840386757348
0.08912312157498159,-0.1516839903945969
0.08326408824047933,-0.153817567983471
0.0812194072819931,-0.15456183007532903
0.07558291859876506,-0.1566161460627589
0.07740492414725639,-0.1559507861220995
0.17722023361993294,-0.11974715366712076
0.17707962673337949,-0.11979655569115318
0.20752574767783083,-0.10866036799548617
0.20846243688338537,-0.10833466870194028
0.21026002715250006,-0.10772809706641069
0.20263808540349668,-0.11043837327927783
0.2024278583240698,-0.1105175460999944
0.20048631348708532,-0.11126025893829591
0.19930953206729507,-0.11171163747344265
0.21026107313847217,-0.10772774971743417
0.3514957042495169,-0.03177375980125738
0.35152361207881877,-0.03174071570227218
0.347230066583341,-0.03567927130469792
0.34761669855991556,-0.035572632253921356
0.3032967767020009,-0.07371606393982191
0.28250850749242284,-0.08137842728194675
0.2832263238834978,-0.0811224537693267
0.29617563616621256,-0.07643958304055098
0.29439271288314617,-0.07709045055692826
-0.05858826232872843,-0.1630206025459676
-0.058155169286544905,-0.1631657074231076
-0.05993738801093211,-0.16257083475118733
-0.05610066986297603,-0.16390654816164704
-0.05412757328006476,-0.16464073564444867
-0.05378102888859504,-0.16477123507608066
-0.04462802357333195,-0.1681044513745504
0.0344324453458307,-0.17157988381104378
0.03504946900587437,-0.17136116801832574
0.032452796173699075,-0.17228796432296747
0.030519006157447008,-0.1729818799429263
0.10270460952788768,-0.14675224455563513
0.1047535016463449,-0.1460117443463001
0.09355565491576515,-0.15007812883853194
0.07945486099834101,-0.15520447832541884
0.07542491373431724,-0.15667407820101045
0.11260854329534514,-0.14318075978553446
0.11369586977910162,-0.14279325388606012
0.10681354319329002,-0.14526694484660796
0.10866303273122521,-0.14459900500147063
0.12245554993663318,-0.1396670692331886
0.12041017695990272,-0.14041178281810732
0.11840464216039193,-0.14111908555667754
0.16337345623246863,-0.124757396009402
0.16138287937634319,-0.12548388552446402
0.16541526237111942,-0.12401702108765777
0.18878242874969792,-0.11556639965243556
0.19073228044665555,-0.11484652202447351
0.1870037855813334,-0.11621383856018949
0.194637803824319,-0.11342276566026135
0.1927751650926197,-0.11409196921667905
