"Plane Section: Position[X] (m)","Plane Section: Position[Y] (m)"
3.5,2.081138725065399E-4
3.27,2.1055078839718564E-4
3.04,2.1840729294392812E-4
2.8100000000000005,2.3063378334341232E-4
2.58,2.4840015996898453E-4
2.3499999999999996,2.8026564509152775E-4
2.1200000000000006,3.22365468080385E-4
1.8900000000000001,3.7737139575256E-4
1.6600000000000004,4.6301786560638976E-4
1.4300000000000002,5.911403580586485E-4
1.2000000000000004,7.258569959017646E-4
1.1760000000000002,7.985077625652596E-4
1.1520000000000001,8.244876976503843E-4
1.1280000000000001,8.557420284976341E-4
1.104,8.909057472811841E-4
1.0800000000000003,9.267752267393363E-4
1.056,9.637513730919209E-4
1.032,0.0010024022859641574
1.008,0.0010462745013537422
0.9840000000000001,0.0010916420893786007
0.96,0.0011378018618764256
0.9359999999999998,0.001190850411806691
0.9120000000000001,0.0012482404673999407
0.8879999999999999,0.001308375223687051
0.8640000000000002,0.0013749318433931342
0.8400000000000001,0.0014483761099738242
0.8160000000000001,0.0015270962127954535
0.7920000000000005,0.0016155330827553951
0.7680000000000007,0.0017110206260363024
0.7440000000000005,0.0018168698618741524
0.7200000000000005,0.0019380530464346464
0.6960000000000006,0.0020753463268386382
0.6720000000000005,0.002234738857724722
0.6480000000000004,0.0024113135687636
0.6240000000000003,0.0026201370088608468
0.6000000000000003,0.0029008593637411873
0.5760000000000003,0.0033148240783342506
0.552,0.003945909988094705
0.5506699424392956,0.004000000000000437
0.528,0.00493557287602597
0.5040000000000001,0.005686404678187396
0.4800000000000001,0.006412593948991311
0.45599999999999996,0.005646091354111794
-0.48000000000000026,0.006406354975962529
-0.45600000000000007,0.005654128043365894
-0.5040000000000002,0.005753774788309544
-0.5508825119605083,0.003999999999999205
-0.5519999999999998,0.003952009273628822
-0.5280000000000001,0.004994757292661837
-0.5760000000000001,0.0033329483095615123
-0.6,0.0029240979790200326
-0.6240000000000001,0.002626990233270501
-0.648,0.002411166672779618
-0.6719999999999999,0.002240328281683983
-0.6960000000000002,0.002077349127378977
-0.7200000000000001,0.0019397924296075258
-0.744,0.0018203178098063178
-0.768,0.0017104397917745216
-0.792,0.0016152769109242858
-0.8160000000000001,0.0015274943730038846
-0.8400000000000001,0.0014469574968561127
-0.864,0.001374624990560904
-0.8879999999999999,0.0013086075618642
-0.912,0.0012468313672122353
-0.9360000000000002,0.0011902459550970582
-0.96,0.0011370191209933902
-0.984,0.0010898237710148671
-1.008,0.0010449689412001723
-1.032,0.0010027598249238035
-1.056,9.631136763837432E-4
-1.08,9.235284895733429E-4
-1.104,8.885739571521977E-4
-1.128,8.543021791515271E-4
-1.1520000000000001,8.284393325581902E-4
-1.1760000000000002,8.003363212481892E-4
-1.2000000000000002,7.234537490405364E-4
-1.43,5.901789570792329E-4
-1.6599999999999997,4.6255565425347195E-4
-1.8899999999999997,3.7828050422124423E-4
-2.12,3.2103273316220343E-4
-2.35,2.8000608508575394E-4
-2.58,2.493655688269827E-4
-2.8100000000000005,2.3077733791446913E-4
-3.04,2.1870073522594843E-4
-3.2699999999999996,2.1074193670964005E-4
-3.5,2.084027376724187E-4
-0.2902858346514367,0.0236715324585886
-0.290277986578954,0.023668676274452405
-0.28642527365253245,0.022266430166865414
-0.28837839227731377,0.022977313883034554
-0.2844840440273304,0.021559847092714357
-0.2825190525434398,0.02084459306575147
-0.2805659504075381,0.020133650882745047
-0.2999729710873663,0.02719486358531912
-0.3016411281293077,0.027800691286024155
-0.27869437504223704,0.019452372438466058
-0.2943913060730583,0.02516466327652163
-0.2961736722836317,0.025812658611655038
-0.29228438622081526,0.02439842784944328
-0.30175915585485374,0.027843752757925673
-0.29807317217727697,0.026503972298217476
-0.26103509031004024,0.013023786083056836
-0.25908201313212054,0.012312775342918051
-0.2572133794696674,0.01163250423760078
-0.2766597592963278,0.0187117303658531
-0.2729138933883374,0.017348036216588338
-0.27470666817072187,0.018000757938642593
-0.27080049533891226,0.0165787872100396
-0.2687964683144755,0.015849251731386134
-0.26300273546965786,0.01374009591222974
-0.26494124793182383,0.014445798592105371
-0.30334623818836026,0.02842111637677421
-0.25517586136632675,0.01089074674804336
-0.2532227864697257,0.010179729741347086
-0.2514335117127552,0.009528239957917385
-0.26689432864095125,0.015156799632361526
-0.30338758109011704,0.02843594323862731
-0.23573251978723914,0.0038123060288078577
-0.23759821404333814,0.0044915202180621575
-0.2473151918658112,0.008029042025697344
-0.2493166428533956,0.008757678760761885
-0.23955128472052306,0.005202548815078886
-0.30354914729324034,0.028489082255544952
-0.23173900049105317,0.0023584386043279224
-0.2336920710857559,0.0030694674279123065
-0.22995324989364646,0.0017082301116055007
-0.22783285920891008,9.363812119019197E-4
-0.2258339794422255,2.0866812145651635E-4
-0.24541049858863037,0.007335629561288526
-0.24345742712356244,0.006624603128514069
-0.24152161189536636,0.005919857261184847
-0.30357656710837433,0.028496465540648143
-0.303567414877571,0.028485955381960422
-0.214251719261928,-0.004008009927692364
-0.21611445408684357,-0.003329842399369667
-0.2239267242413206,-4.856935259806829E-4
-0.22197365639370847,-0.001196729895549553
-0.22004053663503592,-0.0019004928925772189
-0.21806751280249637,-0.0026187809452003713
-0.3036233963330633,0.028492321625685928
-0.20847309156880964,-0.006111942830318513
-0.2102552570176639,-0.005462969290585106
-0.20435286090668803,-0.007611951755639007
-0.20634914747251404,-0.006885113861395911
-0.2122083156796447,-0.004751907688987872
-0.3037654839524797,0.028525475146818927
-0.2028420044471093,-0.008162089440399404
-0.3039982416244899,0.02858758798669167
-0.18970186423237537,-0.01295119237202429
-0.19072620948497693,-0.012577813027422759
-0.20049030360956746,-0.009019210975376701
-0.2024431047685447,-0.008307442038364131
-0.1985601495534381,-0.009722711624409037
-0.19277237914111633,-0.011832291169768678
-0.19463191858541593,-0.011154568474375157
-0.30439912840595457,0.028706402771597445
-0.1848679020503961,-0.0147133836573604
-0.18287440076645037,-0.015439861790849985
-0.18877348235981095,-0.013289785328034709
-0.18699539896156245,-0.013938761755450804
-0.19658467265276225,-0.01044267018129656
-0.3049849821512851,0.02889183987326551
-0.3058423644035459,0.02918993320458291
-0.3057750732963761,0.029170538113564775
-0.17900933478153863,-0.016848240548091142
-0.17708181544293528,-0.017550547293847477
-0.17315061260448134,-0.01898267192123706
-0.17510347574754045,-0.01827107324840548
-0.17129405465369063,-0.019659314331748296
-0.18096222608186333,-0.01613671922049611
-0.30585954066492727,0.02919615137456459
-0.1692448301512926,-0.020405714981491747
-0.16719023712349823,-0.02115393858069434
-0.16262504491694452,-0.022816635122316537
-0.16338581748692702,-0.022539348414593034
-0.3060072737515841,0.0292163959301172
-0.31640380990234945,0.030070895683294876
-0.3144506963882524,0.029900310933873596
-0.312497586008172,0.029683198778420197
-0.16542654563041576,-0.021796010589199014
-0.16139503304599728,-0.023265266328586963
-0.31054447796332457,0.029431417877425543
-0.31007314305505634,0.02935094527054739
-0.3085913806684373,0.029020043802330912
-0.30663827829617524,0.028684048099257845
-0.32208204229055326,0.029351754172041444
-0.32031006303090737,0.030024580853922993
-0.31835692937701665,0.030152990187855416
-0.15166903031966478,-0.026810016388502663
-0.1498152941760245,-0.027485090246317394
-0.15948020813739974,-0.023962866973568003
-0.15752742059082542,-0.02467467330251464
-0.15560269867942858,-0.02537621010809798
-0.3203128797788719,0.027398509999470487
-0.1457115848920198,-0.028981546169306562
-0.14776327735277597,-0.028233140444731394
-0.14190502127363963,-0.03036885214300554
-0.14394785483370198,-0.029624230037092483
-0.15362180132288933,-0.02609816461660952
-0.1399167391195386,-0.031093607729035112
-0.3203102400247857,0.027396941222497088
-0.3183571967067004,0.026184231012013174
-0.3172770154301407,0.025445180503753932
-0.31450245493292217,0.023491868609077073
-0.31640416013443784,0.02487137277010006
-0.13799967094061047,-0.0317930821948292
-0.13757059095479535,-0.03194995328896398
-0.13019039444348252,-0.03464545435038855
-0.12834032191367567,-0.035321220609150744
-0.3144511304870746,0.023455707923483428
-0.3124981045574754,0.021984849389449657
-0.12628526642414614,-0.036070295076054804
-0.13604800908531045,-0.032507980686937915
-0.1341264298830133,-0.03320967238842063
-0.13214287448737777,-0.03393280334184291
-0.3119631927913107,0.021538572563747825
-0.12423605917804187,-0.03681773420741585
-0.12042742356530317,-0.038207141849793166
-0.11842971137971951,-0.038935947425127355
-0.31054509086924675,0.020332256230287112
-0.3097420390537348,0.019585297945722783
-0.30799685321889464,0.0176320553881853
-0.30859210061508746,0.01833176240741053
-0.12247237397287351,-0.03746126776079358
-0.11773493091442389,-0.03918955342242979
-0.10686551667050641,-0.043157756483033244
-0.10871263514465633,-0.04248330018398588
-0.30686255191162903,0.01567885397891172
-0.11456963898830705,-0.04034414871804318
-0.11652271909290847,-0.03963314601721863
-0.11264963227178514,-0.04104165778860041
-0.11066416425159958,-0.04176803704519786
-0.09894943781356166,-0.04604436563951944
-0.09696721275305743,-0.046769648345306704
-0.10480754324677236,-0.04390824013171803
-0.10276124653940757,-0.04465587305779058
-0.10099733542323064,-0.04529952137924892
-0.3066392264186878,0.014608282598460996
-0.3064604764743609,0.013725701891282627
-0.09569126427809616,-0.047242219251302536
-0.3069643279032571,0.01177261082553226
-0.3066393314589309,0.013048861961351958
-0.09117566904942756,-0.04888140401505261
-0.09225194367671796,-0.04849429194022136
-0.08723267187779044,-0.050315091934258524
-0.089185121763688,-0.04960235808466476
-0.0854555380725295,-0.05096849973475471
-0.08332723346365255,-0.05173908003593814
-0.08527163116485623,-0.05103545040411342
-0.08127901315333712,-0.052473619756656986
-0.09504887350732467,-0.04748174243601739
-0.09309523830649913,-0.04819122034214007
-0.07548352795325766,-0.05458314155096359
-0.0774646171917117,-0.05386281471360225
-0.06535603554502771,-0.058285653641690326
-0.0657495447020913,-0.058138192738285875
-0.3085926612839999,0.010008108019827006
-0.08539020725413947,-0.050992852209374724
-0.0795129832428206,-0.05311219229175216
-0.07355554690133127,-0.055276826408600904
-0.07160249613939108,-0.055987909710833624
-0.06968970471053504,-0.05668815868501194
-0.06769846659579803,-0.057415767841273516
-0.06391885888399637,-0.05883877125003253
-0.3087886480019335,0.00981960870458012
-0.31445217884757515,0.007891815744391384
-0.3146151848304486,0.007866876166952043
-0.3124990235007909,0.008342276369608803
-0.06185790005563161,-0.059600070962519756
0.259102143049558,0.012229388631206399
0.2610544815747894,0.012942429283339236
0.25723427983649744,0.011547000236604538
0.27667612053545426,0.01863870061906736
0.2747230542644852,0.017927659850983775
0.2729303794662834,0.017274663291160473
0.2787107660084984,0.019379261037871486
0.28058240948904123,0.020060352327708114
0.29619237829234063,0.025735951887619644
0.2944091003753424,0.025087924377083806
-0.3105458538987049,0.00900437025695004
-0.31640531713187103,0.007694663713240386
-0.06169224426119293,-0.05966106272272672
0.2708170990972912,0.016505090879565837
0.26881328799312,0.015774961992674568
0.26691143466127454,0.0150817229633954
0.2654358590890563,0.014543680123037842
0.26495883395762465,0.014369402791521681
0.2630213821222806,0.013660785400158361
0.25519756519809683,0.010803034722809805
0.25324518338387786,0.010090113031119737
0.2514567107226734,0.00943641895437453
0.24734017975522687,0.007932304992732151
0.24934062059451917,0.008663717731328215
0.2467789284050469,0.007726791452786851
0.23763126436463777,0.004372626885317471
0.2395828570299629,0.005087717200182432
0.2357669409734862,0.003689645428070516
0.2923018556023671,0.024322137037601388
0.2902953416214779,0.02359282009883827
0.286442177595171,0.022191907172780023
0.2883955168630862,0.022902169192531033
0.28450076634548904,0.02148582494563865
0.28253562776628494,0.02077097537444871
0.2964708973407449,0.02583714291610317
-0.3222647078330307,0.0074617625471811
-0.3203115791247809,0.007516749299254225
-0.3183584494806184,0.007585630470042831
-0.32421783635771406,0.00740950109881134
-0.05981737588401173,-0.06034793371624538
-0.055997533465298344,-0.061729985294196286
-0.05777680472913553,-0.06108646485047331
-0.05402032693913303,-0.062452887749627005
-0.05388235428569769,-0.06250422597359111
-0.044283230201079354,-0.0660074763053666
-0.042448101463084156,-0.06668625412024705
0.005539034462425342,-0.0800003760183059
0.005268455217355104,-0.08009842417943339
-0.003933015225984235,-0.0805879159519963
-0.0033508577522141487,-0.08079760044611214
-0.00604764680627782,-0.0798304231316882
-0.005278963165007909,-0.08010516130555748
-0.0015955157309085386,-0.08143526582203771
-5.109108785932007E-6,-0.0820147880810902
0.23177660361590366,0.002227033739067595
0.23372801418082756,0.002942624475531639
0.2315044370082373,0.0021268797964191237
0.24543740592254923,0.007233617733097714
0.24348596011441204,0.006518123846858416
0.24155169875510754,0.005809107803351338
0.29809676533406443,0.026427023463398383
-0.3281240945352016,0.00728823016159923
-0.32617096512332644,0.00735366280368784
-0.058051445028539234,-0.06098753185782446
-0.05209767201622205,-0.06316929277015385
-0.050149956081711716,-0.0638950303184084
-0.048238981567515576,-0.0645916910459864
-0.046239780425683906,-0.06530600568273988
-0.04038659298533113,-0.06745564043302348
-0.03835178713033137,-0.06821138493074368
0.009090167464239334,-0.0787160000808658
0.010053920142277123,-0.0783697672530457
0.01102403811683449,-0.07802515716252398
0.011935124057549068,-0.07770370477977394
0.0071478634523102075,-0.07941814354732306
0.0033418631593009444,-0.08079695148501173
0.0015857959332684873,-0.081435253305422
-0.007161645800728598,-0.07943585143124945
-0.007972807442390916,-0.07914807227073538
0.22999392930909873,0.0015683713439949498
0.22787580135819852,7.903042979819508E-4
0.22587918948089344,5.635885999915984E-5
0.30000118968190825,0.027116924878890943
-0.3339834878218,0.007016945827105863
-0.3320303560151352,0.007117931351294367
-0.3300772248450971,0.007209465570815966
-0.3359366200457825,0.006909764828326004
-0.03770226456727728,-0.068456959227805
-0.032750960466455696,-0.07035310614388111
-0.034549901317491305,-0.06965058744729069
0.013005750377313437,-0.07733359644795769
0.013551060608551688,-0.07714341962668242
-0.009267322705761472,-0.07870455424389489
-0.009114100084046043,-0.07875712414986868
0.06574990525755169,-0.05816728317696852
0.06770292272954528,-0.057456108306699755
0.06391061059775102,-0.05884421681759024
0.05980656696085068,-0.06034634856801582
0.0618476876936541,-0.05960012328126255
0.058042036601047745,-0.06098979418082372
0.055990432940663915,-0.061738587965694855
0.054012883034120614,-0.062460547999716884
0.05208494324347699,-0.06316243607347524
0.051768036157756006,-0.06327810985130285
0.08540856274208258,-0.051071394893646045
0.08724612377300771,-0.05038015663471485
0.0769154078069824,-0.05412713334013857
0.0754943476415412,-0.05464096973793274
0.16342283967645077,-0.02266916396947987
0.16143470417282382,-0.023402361797197402
0.16545983618916105,-0.021915571211689265
0.15040820560911042,-0.02744597340275463
0.15171355680296153,-0.026960456402749966
0.16928697297548645,-0.02054960189585795
0.1713295849744508,-0.019832809934856435
0.16722656058581264,-0.021281833731576938
0.2239743457105697,-6.446295927977871E-4
0.22202406304681943,-0.0013633198617518001
0.22009372306445907,-0.002074721893154086
0.2181234012650261,-0.0028004353381294684
0.2173461287508893,-0.003087667854119165
0.21431439060002944,-0.004208304169614291
0.21617355239354447,-0.003520317691337524
0.2085462627001924,-0.006341091316645225
0.21032447023655512,-0.005681241104778125
0.20443404957039601,-0.007863132983803393
0.2064263029113249,-0.007125211480601584
0.21227426664032392,-0.004961214567497528
0.3016862600033816,0.027726100829650338
-0.3398428851103861,0.0066862482299736075
-0.33788975247347774,0.006799559520420858
-0.036594379134426175,-0.06887515739305797
-0.03259143078362188,-0.07041685174338871
0.015074546414313592,-0.07661840119628593
-0.010896642917971936,-0.07815302451671428
0.0424390004821681,-0.06668936856742264
0.04427759533055888,-0.06602011179345385
0.040375831440943866,-0.06745419861884328
0.03834230363653977,-0.06821346087090713
0.01575907340481872,-0.07638155370080238
0.01685159090325526,-0.07600787529414932
0.018898120317414543,-0.07529218429734938
0.07356751071174873,-0.05533779572664392
0.07161261681924522,-0.05604381409343191
0.06969667121898337,-0.056735396735864745
0.050132597860017995,-0.06387545787882684
0.04822474428607523,-0.06458069553209175
0.04623252277603773,-0.06531418563203165
0.09119253148487153,-0.04895584159687983
0.09311173196766732,-0.04826464765281713
0.08919944836829556,-0.049669825755617514
0.08334696427060226,-0.051821400454844097
0.0812975245422097,-0.05255258509549124
0.07747744526188041,-0.053926162311447784
0.15951986729858322,-0.02409992980478938
0.15756803793981672,-0.024814369673479133
0.15564401896975955,-0.025517838567752665
0.14150320687272816,-0.03078008591410457
0.14197936881308404,-0.03060124386852385
0.15366172352918006,-0.026235951424787858
0.1498674577365922,-0.02765651749220898
0.14577131928441633,-0.029173779511081396
0.14782166166207705,-0.0284216630751691
0.14401395602586314,-0.029833959957090983
0.19011614431079027,-0.01323058783818019
0.1908500063890099,-0.012946086251426034
0.19288605267960152,-0.012172744558528726
0.19473837782992914,-0.011475196263859037
0.16931383840146164,-0.020623429517039712
0.1684347597691237,-0.020979856633608046
0.20296417675558057,-0.008414810544702094
0.20058227912053966,-0.009300035553730344
0.20253088290205815,-0.008576731627000391
0.19865696268575944,-0.010016830607368465
0.30336558517167483,0.028360590415793367
-0.34374915148797985,0.00644323901426889
-0.34179601808028626,0.006567993364706792
-0.021199419507308883,-0.07455840440659707
-0.021007986941365627,-0.07461784829978015
-0.01857617794216572,-0.07541974446958172
-0.01686579439571973,-0.0760187733117976
-0.030698343807728325,-0.07122258109164702
-0.015095024292029727,-0.07664658226090065
-0.01303722034088835,-0.07739221046729819
-0.011060773817927843,-0.0780993399595007
0.03703528645377625,-0.06870169327140506
0.01960897788265736,-0.07504302160839844
0.020983919768422184,-0.07457988225121279
0.022140108796515123,-0.07421559567759028
0.10133265876638517,-0.04530426820568338
0.10102801449226645,-0.04541192518183987
0.10485969196197564,-0.044079642007140325
0.102803500291133,-0.04480008409869718
0.09897738581283885,-0.0461492641209503
0.09699163362477291,-0.046864855503490455
0.09506616910313018,-0.04755737409335353
0.07952885237818043,-0.053183895018758684
0.11658066366289993,-0.039820471094096484
0.11462558866906489,-0.04052599178477993
0.11271161822498031,-0.041240088366151124
0.10692608465451078,-0.043352294423418467
0.10877096983189062,-0.04267170010623739
0.11785741887186123,-0.039384645213680916
0.12045115810233138,-0.03858125514994367
0.118507197272362,-0.03917697194586288
0.1641679779662925,-0.02267296869764432
0.1655348105211621,-0.022121604668461314
0.14000507792450645,-0.031364448597083316
0.18890722230434276,-0.013685383015004361
0.1871356662569646,-0.014352297619140354
0.19668607328216542,-0.01074939619990498
0.1672839603936376,-0.021439571460059426
0.18501397807807415,-0.015142882328958227
0.183025743823202,-0.015883834873101285
0.17724989432559154,-0.0180405121893641
0.17917196359060175,-0.017323228074593813
0.3036697917691778,0.028467591750191243
-0.3476554185602547,0.0061899166851746325
-0.34570228521793595,0.006313700431697578
-0.018912912826528093,-0.07530469073711935
-0.02241799686312121,-0.07425524841196013
-0.030446467504359396,-0.07133251163084511
